Timestamp,ADC_Value,Voltage_mV
2026-07-27 14:25:32.358,6,29.326
2026-07-27 14:25:32.358,340,1661.779
2026-07-27 14:25:32.358,341,1666.667
2026-07-27 14:25:32.359,346,1691.105
2026-07-27 14:25:32.359,356,1739.98
2026-07-27 14:25:32.359,365,1783.969
2026-07-27 14:25:32.359,395,1930.596
2026-07-27 14:25:32.359,437,2135.875
2026-07-27 14:25:32.359,476,2326.491
2026-07-27 14:25:32.359,470,2297.165
2026-07-27 14:25:32.359,372,1818.182
2026-07-27 14:25:32.359,268,1309.873
2026-07-27 14:25:32.359,210,1026.393
2026-07-27 14:25:32.359,228,1114.37
2026-07-27 14:25:32.359,285,1392.962
2026-07-27 14:25:32.359,324,1583.578
2026-07-27 14:25:32.359,342,1671.554
2026-07-27 14:25:32.360,352,1720.43
2026-07-27 14:25:32.360,361,1764.418
2026-07-27 14:25:32.360,359,1754.643
2026-07-27 14:25:32.360,354,1730.205
2026-07-27 14:25:32.360,350,1710.655
2026-07-27 14:25:32.360,349,1705.767
2026-07-27 14:25:32.360,352,1720.43
2026-07-27 14:25:32.360,353,1725.318
2026-07-27 14:25:32.360,355,1735.093
2026-07-27 14:25:32.360,358,1749.756
2026-07-27 14:25:32.360,356,1739.98
2026-07-27 14:25:32.360,357,1744.868
2026-07-27 14:25:32.360,357,1744.868
2026-07-27 14:25:32.361,357,1744.868
2026-07-27 14:25:32.361,359,1754.643
2026-07-27 14:25:32.361,359,1754.643
2026-07-27 14:25:32.361,359,1754.643
2026-07-27 14:25:32.361,361,1764.418
2026-07-27 14:25:32.361,361,1764.418
2026-07-27 14:25:32.361,361,1764.418
2026-07-27 14:25:32.362,362,1769.306
2026-07-27 14:25:32.362,363,1774.194
2026-07-27 14:25:32.364,364,1779.081
2026-07-27 14:25:32.488,365,1783.969
2026-07-27 14:25:32.488,366,1788.856
2026-07-27 14:25:32.488,368,1798.631
2026-07-27 14:25:32.488,373,1823.069
2026-07-27 14:25:32.488,376,1837.732
2026-07-27 14:25:32.488,379,1852.395
2026-07-27 14:25:32.488,383,1871.945
2026-07-27 14:25:32.488,388,1896.383
2026-07-27 14:25:32.488,396,1935.484
2026-07-27 14:25:32.488,403,1969.697
2026-07-27 14:25:32.488,407,1989.247
2026-07-27 14:25:32.488,414,2023.46
2026-07-27 14:25:32.489,417,2038.123
2026-07-27 14:25:32.489,422,2062.561
2026-07-27 14:25:32.489,425,2077.224
2026-07-27 14:25:32.489,425,2077.224
2026-07-27 14:25:32.489,423,2067.449
2026-07-27 14:25:32.489,414,2023.46
2026-07-27 14:25:32.489,404,1974.585
2026-07-27 14:25:32.489,390,1906.158
2026-07-27 14:25:32.489,375,1832.845
2026-07-27 14:25:32.489,363,1774.194
2026-07-27 14:25:32.489,350,1710.655
2026-07-27 14:25:32.489,340,1661.779
2026-07-27 14:25:32.608,335,1637.341
2026-07-27 14:25:32.608,330,1612.903
2026-07-27 14:25:32.608,326,1593.353
2026-07-27 14:25:32.608,324,1583.578
2026-07-27 14:25:32.608,323,1578.69
2026-07-27 14:25:32.608,321,1568.915
2026-07-27 14:25:32.608,320,1564.027
2026-07-27 14:25:32.609,320,1564.027
2026-07-27 14:25:32.609,320,1564.027
2026-07-27 14:25:32.609,321,1568.915
2026-07-27 14:25:32.609,319,1559.14
2026-07-27 14:25:32.609,323,1578.69
2026-07-27 14:25:32.609,323,1578.69
2026-07-27 14:25:32.609,324,1583.578
2026-07-27 14:25:32.609,326,1593.353
2026-07-27 14:25:32.609,327,1598.24
2026-07-27 14:25:32.609,326,1593.353
2026-07-27 14:25:32.609,327,1598.24
2026-07-27 14:25:32.609,327,1598.24
2026-07-27 14:25:32.609,328,1603.128
2026-07-27 14:25:32.610,330,1612.903
2026-07-27 14:25:32.610,331,1617.791
2026-07-27 14:25:32.610,330,1612.903
2026-07-27 14:25:32.614,330,1612.903
2026-07-27 14:25:32.664,332,1622.678
2026-07-27 14:25:32.664,334,1632.454
2026-07-27 14:25:32.664,335,1637.341
2026-07-27 14:25:32.664,335,1637.341
2026-07-27 14:25:32.665,336,1642.229
2026-07-27 14:25:32.665,336,1642.229
2026-07-27 14:25:32.665,336,1642.229
2026-07-27 14:25:32.665,338,1652.004
2026-07-27 14:25:32.665,338,1652.004
2026-07-27 14:25:32.668,337,1647.116
2026-07-27 14:25:32.672,339,1656.891
2026-07-27 14:25:32.676,342,1671.554
2026-07-27 14:25:32.684,340,1661.779
2026-07-27 14:25:32.686,340,1661.779
2026-07-27 14:25:32.730,341,1666.667
2026-07-27 14:25:32.731,343,1676.442
2026-07-27 14:25:32.731,343,1676.442
2026-07-27 14:25:32.731,341,1666.667
2026-07-27 14:25:32.732,342,1671.554
2026-07-27 14:25:32.732,343,1676.442
2026-07-27 14:25:32.732,342,1671.554
2026-07-27 14:25:32.732,341,1666.667
2026-07-27 14:25:32.736,343,1676.442
2026-07-27 14:25:32.740,342,1671.554
2026-07-27 14:25:32.743,340,1661.779
2026-07-27 14:25:32.778,340,1661.779
2026-07-27 14:25:32.778,342,1671.554
2026-07-27 14:25:32.778,341,1666.667
2026-07-27 14:25:32.778,340,1661.779
2026-07-27 14:25:32.778,338,1652.004
2026-07-27 14:25:32.778,340,1661.779
2026-07-27 14:25:32.780,340,1661.779
2026-07-27 14:25:32.827,336,1642.229
2026-07-27 14:25:32.827,335,1637.341
2026-07-27 14:25:32.828,337,1647.116
2026-07-27 14:25:32.828,337,1647.116
2026-07-27 14:25:32.828,338,1652.004
2026-07-27 14:25:32.828,337,1647.116
2026-07-27 14:25:32.828,338,1652.004
2026-07-27 14:25:32.828,338,1652.004
2026-07-27 14:25:32.828,338,1652.004
2026-07-27 14:25:32.833,336,1642.229
2026-07-27 14:25:32.838,336,1642.229
2026-07-27 14:25:32.874,336,1642.229
2026-07-27 14:25:32.874,336,1642.229
2026-07-27 14:25:32.874,334,1632.454
2026-07-27 14:25:32.874,334,1632.454
2026-07-27 14:25:32.874,334,1632.454
2026-07-27 14:25:32.874,333,1627.566
2026-07-27 14:25:32.874,333,1627.566
2026-07-27 14:25:32.879,334,1632.454
2026-07-27 14:25:32.920,335,1637.341
2026-07-27 14:25:32.920,335,1637.341
2026-07-27 14:25:32.921,334,1632.454
2026-07-27 14:25:32.921,335,1637.341
2026-07-27 14:25:32.921,334,1632.454
2026-07-27 14:25:32.921,333,1627.566
2026-07-27 14:25:32.921,334,1632.454
2026-07-27 14:25:32.921,335,1637.341
2026-07-27 14:25:32.966,334,1632.454
2026-07-27 14:25:32.966,333,1627.566
2026-07-27 14:25:32.966,333,1627.566
2026-07-27 14:25:32.966,335,1637.341
2026-07-27 14:25:32.966,333,1627.566
2026-07-27 14:25:32.966,332,1622.678
2026-07-27 14:25:32.966,331,1617.791
2026-07-27 14:25:32.966,332,1622.678
2026-07-27 14:25:32.968,331,1617.791
2026-07-27 14:25:33.008,328,1603.128
2026-07-27 14:25:33.008,328,1603.128
2026-07-27 14:25:33.008,328,1603.128
2026-07-27 14:25:33.008,328,1603.128
2026-07-27 14:25:33.008,327,1598.24
2026-07-27 14:25:33.008,329,1608.016
2026-07-27 14:25:33.009,328,1603.128
2026-07-27 14:25:33.009,328,1603.128
2026-07-27 14:25:33.044,328,1603.128
2026-07-27 14:25:33.044,332,1622.678
2026-07-27 14:25:33.044,333,1627.566
2026-07-27 14:25:33.044,332,1622.678
2026-07-27 14:25:33.044,331,1617.791
2026-07-27 14:25:33.045,331,1617.791
2026-07-27 14:25:33.047,326,1593.353
2026-07-27 14:25:33.051,325,1588.465
2026-07-27 14:25:33.091,324,1583.578
2026-07-27 14:25:33.091,322,1573.803
2026-07-27 14:25:33.091,317,1549.365
2026-07-27 14:25:33.091,316,1544.477
2026-07-27 14:25:33.091,315,1539.589
2026-07-27 14:25:33.091,316,1544.477
2026-07-27 14:25:33.091,316,1544.477
2026-07-27 14:25:33.092,317,1549.365
2026-07-27 14:25:33.138,319,1559.14
2026-07-27 14:25:33.138,324,1583.578
2026-07-27 14:25:33.138,333,1627.566
2026-07-27 14:25:33.138,342,1671.554
2026-07-27 14:25:33.138,367,1793.744
2026-07-27 14:25:33.138,414,2023.46
2026-07-27 14:25:33.139,462,2258.065
2026-07-27 14:25:33.139,442,2160.313
2026-07-27 14:25:33.141,327,1598.24
2026-07-27 14:25:33.144,229,1119.257
2026-07-27 14:25:33.177,185,904.203
2026-07-27 14:25:33.177,228,1114.37
2026-07-27 14:25:33.177,287,1402.737
2026-07-27 14:25:33.177,317,1549.365
2026-07-27 14:25:33.177,325,1588.465
2026-07-27 14:25:33.177,329,1608.016
2026-07-27 14:25:33.214,330,1612.903
2026-07-27 14:25:33.214,330,1612.903
2026-07-27 14:25:33.214,326,1593.353
2026-07-27 14:25:33.215,324,1583.578
2026-07-27 14:25:33.217,327,1598.24
2026-07-27 14:25:33.217,330,1612.903
2026-07-27 14:25:33.217,329,1608.016
2026-07-27 14:25:33.217,329,1608.016
2026-07-27 14:25:33.261,330,1612.903
2026-07-27 14:25:33.262,332,1622.678
2026-07-27 14:25:33.262,333,1627.566
2026-07-27 14:25:33.262,332,1622.678
2026-07-27 14:25:33.262,334,1632.454
2026-07-27 14:25:33.262,334,1632.454
2026-07-27 14:25:33.262,335,1637.341
2026-07-27 14:25:33.262,335,1637.341
2026-07-27 14:25:33.264,338,1652.004
2026-07-27 14:25:33.308,339,1656.891
2026-07-27 14:25:33.308,340,1661.779
2026-07-27 14:25:33.308,341,1666.667
2026-07-27 14:25:33.308,344,1681.329
2026-07-27 14:25:33.308,348,1700.88
2026-07-27 14:25:33.308,349,1705.767
2026-07-27 14:25:33.309,349,1705.767
2026-07-27 14:25:33.309,353,1725.318
2026-07-27 14:25:33.310,359,1754.643
2026-07-27 14:25:33.354,367,1793.744
2026-07-27 14:25:33.355,373,1823.069
2026-07-27 14:25:33.355,379,1852.395
2026-07-27 14:25:33.355,385,1881.72
2026-07-27 14:25:33.355,390,1906.158
2026-07-27 14:25:33.355,394,1925.709
2026-07-27 14:25:33.355,399,1950.147
2026-07-27 14:25:33.356,399,1950.147
2026-07-27 14:25:33.362,395,1930.596
2026-07-27 14:25:33.363,387,1891.496
2026-07-27 14:25:33.403,377,1842.62
2026-07-27 14:25:33.403,362,1769.306
2026-07-27 14:25:33.403,343,1676.442
2026-07-27 14:25:33.403,325,1588.465
2026-07-27 14:25:33.403,312,1524.927
2026-07-27 14:25:33.403,299,1461.388
2026-07-27 14:25:33.403,290,1417.4
2026-07-27 14:25:33.404,284,1388.074
2026-07-27 14:25:33.451,279,1363.636
2026-07-27 14:25:33.451,276,1348.974
2026-07-27 14:25:33.451,272,1329.423
2026-07-27 14:25:33.451,271,1324.536
2026-07-27 14:25:33.451,273,1334.311
2026-07-27 14:25:33.451,273,1334.311
2026-07-27 14:25:33.451,270,1319.648
2026-07-27 14:25:33.451,271,1324.536
2026-07-27 14:25:33.452,274,1339.198
2026-07-27 14:25:33.496,273,1334.311
2026-07-27 14:25:33.497,273,1334.311
2026-07-27 14:25:33.497,275,1344.086
2026-07-27 14:25:33.497,278,1358.749
2026-07-27 14:25:33.497,280,1368.524
2026-07-27 14:25:33.497,279,1363.636
2026-07-27 14:25:33.497,282,1378.299
2026-07-27 14:25:33.497,284,1388.074
2026-07-27 14:25:33.497,288,1407.625
2026-07-27 14:25:33.543,289,1412.512
2026-07-27 14:25:33.543,292,1427.175
2026-07-27 14:25:33.543,292,1427.175
2026-07-27 14:25:33.543,293,1432.063
2026-07-27 14:25:33.543,291,1422.287
2026-07-27 14:25:33.543,293,1432.063
2026-07-27 14:25:33.543,296,1446.725
2026-07-27 14:25:33.543,301,1471.163
2026-07-27 14:25:33.544,302,1476.051
2026-07-27 14:25:33.591,304,1485.826
2026-07-27 14:25:33.591,304,1485.826
2026-07-27 14:25:33.591,304,1485.826
2026-07-27 14:25:33.591,305,1490.714
2026-07-27 14:25:33.591,306,1495.601
2026-07-27 14:25:33.591,306,1495.601
2026-07-27 14:25:33.591,307,1500.489
2026-07-27 14:25:33.591,308,1505.376
2026-07-27 14:25:33.591,309,1510.264
2026-07-27 14:25:33.637,312,1524.927
2026-07-27 14:25:33.637,312,1524.927
2026-07-27 14:25:33.637,308,1505.376
2026-07-27 14:25:33.637,308,1505.376
2026-07-27 14:25:33.637,312,1524.927
2026-07-27 14:25:33.637,312,1524.927
2026-07-27 14:25:33.638,311,1520.039
2026-07-27 14:25:33.638,310,1515.152
2026-07-27 14:25:33.638,309,1510.264
2026-07-27 14:25:33.685,308,1505.376
2026-07-27 14:25:33.685,309,1510.264
2026-07-27 14:25:33.686,311,1520.039
2026-07-27 14:25:33.686,311,1520.039
2026-07-27 14:25:33.686,311,1520.039
2026-07-27 14:25:33.686,310,1515.152
2026-07-27 14:25:33.686,311,1520.039
2026-07-27 14:25:33.687,310,1515.152
2026-07-27 14:25:33.687,308,1505.376
2026-07-27 14:25:33.729,310,1515.152
2026-07-27 14:25:33.729,310,1515.152
2026-07-27 14:25:33.729,308,1505.376
2026-07-27 14:25:33.729,309,1510.264
2026-07-27 14:25:33.730,311,1520.039
2026-07-27 14:25:33.730,310,1515.152
2026-07-27 14:25:33.732,306,1495.601
2026-07-27 14:25:33.732,304,1485.826
2026-07-27 14:25:33.732,307,1500.489
2026-07-27 14:25:33.774,309,1510.264
2026-07-27 14:25:33.775,308,1505.376
2026-07-27 14:25:33.775,306,1495.601
2026-07-27 14:25:33.775,307,1500.489
2026-07-27 14:25:33.775,308,1505.376
2026-07-27 14:25:33.775,308,1505.376
2026-07-27 14:25:33.775,306,1495.601
2026-07-27 14:25:33.775,307,1500.489
2026-07-27 14:25:33.778,306,1495.601
2026-07-27 14:25:33.821,306,1495.601
2026-07-27 14:25:33.821,307,1500.489
2026-07-27 14:25:33.821,309,1510.264
2026-07-27 14:25:33.822,310,1515.152
2026-07-27 14:25:33.822,309,1510.264
2026-07-27 14:25:33.822,307,1500.489
2026-07-27 14:25:33.822,307,1500.489
2026-07-27 14:25:33.822,308,1505.376
2026-07-27 14:25:33.825,307,1500.489
2026-07-27 14:25:33.867,306,1495.601
2026-07-27 14:25:33.867,306,1495.601
2026-07-27 14:25:33.867,305,1490.714
2026-07-27 14:25:33.867,306,1495.601
2026-07-27 14:25:33.867,307,1500.489
2026-07-27 14:25:33.868,307,1500.489
2026-07-27 14:25:33.868,308,1505.376
2026-07-27 14:25:33.871,309,1510.264
2026-07-27 14:25:33.872,307,1500.489
2026-07-27 14:25:33.913,309,1510.264
2026-07-27 14:25:33.913,312,1524.927
2026-07-27 14:25:33.913,312,1524.927
2026-07-27 14:25:33.913,311,1520.039
2026-07-27 14:25:33.913,314,1534.702
2026-07-27 14:25:33.913,316,1544.477
2026-07-27 14:25:33.914,316,1544.477
2026-07-27 14:25:33.915,316,1544.477
2026-07-27 14:25:33.919,323,1578.69
2026-07-27 14:25:33.960,323,1578.69
2026-07-27 14:25:33.960,322,1573.803
2026-07-27 14:25:33.960,318,1554.252
2026-07-27 14:25:33.961,318,1554.252
2026-07-27 14:25:33.961,315,1539.589
2026-07-27 14:25:33.961,314,1534.702
2026-07-27 14:25:33.961,314,1534.702
2026-07-27 14:25:33.961,313,1529.814
2026-07-27 14:25:33.967,310,1515.152
2026-07-27 14:25:33.971,310,1515.152
2026-07-27 14:25:34.006,312,1524.927
2026-07-27 14:25:34.006,316,1544.477
2026-07-27 14:25:34.006,315,1539.589
2026-07-27 14:25:34.006,316,1544.477
2026-07-27 14:25:34.006,323,1578.69
2026-07-27 14:25:34.007,337,1647.116
2026-07-27 14:25:34.008,345,1686.217
2026-07-27 14:25:34.012,360,1759.531
2026-07-27 14:25:34.053,393,1920.821
2026-07-27 14:25:34.053,439,2145.65
2026-07-27 14:25:34.054,456,2228.739
2026-07-27 14:25:34.054,356,1739.98
2026-07-27 14:25:34.054,235,1148.583
2026-07-27 14:25:34.054,183,894.428
2026-07-27 14:25:34.055,218,1065.494
2026-07-27 14:25:34.055,271,1324.536
2026-07-27 14:25:34.084,297,1451.613
2026-07-27 14:25:34.084,313,1529.814
2026-07-27 14:25:34.085,323,1578.69
2026-07-27 14:25:34.085,328,1603.128
2026-07-27 14:25:34.085,331,1617.791
2026-07-27 14:25:34.085,332,1622.678
2026-07-27 14:25:34.115,330,1612.903
2026-07-27 14:25:34.115,327,1598.24
2026-07-27 14:25:34.116,329,1608.016
2026-07-27 14:25:34.116,331,1617.791
2026-07-27 14:25:34.116,330,1612.903
2026-07-27 14:25:34.117,328,1603.128
2026-07-27 14:25:34.147,330,1612.903
2026-07-27 14:25:34.147,330,1612.903
2026-07-27 14:25:34.147,329,1608.016
2026-07-27 14:25:34.147,331,1617.791
2026-07-27 14:25:34.147,332,1622.678
2026-07-27 14:25:34.148,333,1627.566
2026-07-27 14:25:34.176,333,1627.566
2026-07-27 14:25:34.177,332,1622.678
2026-07-27 14:25:34.177,333,1627.566
2026-07-27 14:25:34.177,336,1642.229
2026-07-27 14:25:34.177,336,1642.229
2026-07-27 14:25:34.179,338,1652.004
2026-07-27 14:25:34.207,342,1671.554
2026-07-27 14:25:34.208,343,1676.442
2026-07-27 14:25:34.208,345,1686.217
2026-07-27 14:25:34.208,350,1710.655
2026-07-27 14:25:34.208,356,1739.98
2026-07-27 14:25:34.210,360,1759.531
2026-07-27 14:25:34.238,364,1779.081
2026-07-27 14:25:34.239,370,1808.407
2026-07-27 14:25:34.239,376,1837.732
2026-07-27 14:25:34.239,380,1857.283
2026-07-27 14:25:34.239,384,1876.833
2026-07-27 14:25:34.245,390,1906.158
2026-07-27 14:25:34.246,393,1920.821
2026-07-27 14:25:34.284,391,1911.046
2026-07-27 14:25:34.284,384,1876.833
2026-07-27 14:25:34.285,378,1847.507
2026-07-27 14:25:34.285,366,1788.856
2026-07-27 14:25:34.285,351,1715.543
2026-07-27 14:25:34.285,336,1642.229
2026-07-27 14:25:34.285,326,1593.353
2026-07-27 14:25:34.288,317,1549.365
2026-07-27 14:25:34.315,308,1505.376
2026-07-27 14:25:34.315,300,1466.276
2026-07-27 14:25:34.315,298,1456.5
2026-07-27 14:25:34.315,299,1461.388
2026-07-27 14:25:34.315,296,1446.725
2026-07-27 14:25:34.319,293,1432.063
2026-07-27 14:25:34.347,292,1427.175
2026-07-27 14:25:34.347,292,1427.175
2026-07-27 14:25:34.347,293,1432.063
2026-07-27 14:25:34.347,293,1432.063
2026-07-27 14:25:34.347,295,1441.838
2026-07-27 14:25:34.350,297,1451.613
2026-07-27 14:25:34.378,298,1456.5
2026-07-27 14:25:34.378,297,1451.613
2026-07-27 14:25:34.378,298,1456.5
2026-07-27 14:25:34.378,299,1461.388
2026-07-27 14:25:34.385,300,1466.276
2026-07-27 14:25:34.385,299,1461.388
2026-07-27 14:25:34.387,300,1466.276
2026-07-27 14:25:34.426,301,1471.163
2026-07-27 14:25:34.426,302,1476.051
2026-07-27 14:25:34.426,301,1471.163
2026-07-27 14:25:34.427,303,1480.938
2026-07-27 14:25:34.427,304,1485.826
2026-07-27 14:25:34.427,305,1490.714
2026-07-27 14:25:34.427,305,1490.714
2026-07-27 14:25:34.428,307,1500.489
2026-07-27 14:25:34.458,307,1500.489
2026-07-27 14:25:34.458,308,1505.376
2026-07-27 14:25:34.459,308,1505.376
2026-07-27 14:25:34.459,309,1510.264
2026-07-27 14:25:34.459,308,1505.376
2026-07-27 14:25:34.460,307,1500.489
2026-07-27 14:25:34.489,310,1515.152
2026-07-27 14:25:34.489,312,1524.927
2026-07-27 14:25:34.489,312,1524.927
2026-07-27 14:25:34.489,311,1520.039
2026-07-27 14:25:34.490,312,1524.927
2026-07-27 14:25:34.491,314,1534.702
2026-07-27 14:25:34.520,314,1534.702
2026-07-27 14:25:34.520,313,1529.814
2026-07-27 14:25:34.520,316,1544.477
2026-07-27 14:25:34.520,316,1544.477
2026-07-27 14:25:34.520,316,1544.477
2026-07-27 14:25:34.522,315,1539.589
2026-07-27 14:25:34.551,317,1549.365
2026-07-27 14:25:34.551,320,1564.027
2026-07-27 14:25:34.552,318,1554.252
2026-07-27 14:25:34.552,318,1554.252
2026-07-27 14:25:34.552,320,1564.027
2026-07-27 14:25:34.553,323,1578.69
2026-07-27 14:25:34.582,323,1578.69
2026-07-27 14:25:34.583,323,1578.69
2026-07-27 14:25:34.583,324,1583.578
2026-07-27 14:25:34.583,325,1588.465
2026-07-27 14:25:34.584,325,1588.465
2026-07-27 14:25:34.587,324,1583.578
2026-07-27 14:25:34.589,326,1593.353
2026-07-27 14:25:34.629,328,1603.128
2026-07-27 14:25:34.630,329,1608.016
2026-07-27 14:25:34.630,329,1608.016
2026-07-27 14:25:34.630,329,1608.016
2026-07-27 14:25:34.630,330,1612.903
2026-07-27 14:25:34.630,331,1617.791
2026-07-27 14:25:34.630,331,1617.791
2026-07-27 14:25:34.631,332,1622.678
2026-07-27 14:25:34.660,333,1627.566
2026-07-27 14:25:34.660,335,1637.341
2026-07-27 14:25:34.661,336,1642.229
2026-07-27 14:25:34.661,337,1647.116
2026-07-27 14:25:34.661,338,1652.004
2026-07-27 14:25:34.662,338,1652.004
2026-07-27 14:25:34.691,339,1656.891
2026-07-27 14:25:34.691,341,1666.667
2026-07-27 14:25:34.691,342,1671.554
2026-07-27 14:25:34.691,344,1681.329
2026-07-27 14:25:34.691,343,1676.442
2026-07-27 14:25:34.694,347,1695.992
2026-07-27 14:25:34.722,346,1691.105
2026-07-27 14:25:34.722,344,1681.329
2026-07-27 14:25:34.722,345,1686.217
2026-07-27 14:25:34.722,349,1705.767
2026-07-27 14:25:34.722,347,1695.992
2026-07-27 14:25:34.725,344,1681.329
2026-07-27 14:25:34.752,346,1691.105
2026-07-27 14:25:34.752,349,1705.767
2026-07-27 14:25:34.752,347,1695.992
2026-07-27 14:25:34.753,345,1686.217
2026-07-27 14:25:34.753,348,1700.88
2026-07-27 14:25:34.783,350,1710.655
2026-07-27 14:25:34.787,350,1710.655
2026-07-27 14:25:34.787,350,1710.655
2026-07-27 14:25:34.787,354,1730.205
2026-07-27 14:25:34.787,356,1739.98
2026-07-27 14:25:34.794,356,1739.98
2026-07-27 14:25:34.794,355,1735.093
2026-07-27 14:25:34.794,360,1759.531
2026-07-27 14:25:34.831,364,1779.081
2026-07-27 14:25:34.831,364,1779.081
2026-07-27 14:25:34.831,361,1764.418
2026-07-27 14:25:34.831,361,1764.418
2026-07-27 14:25:34.831,361,1764.418
2026-07-27 14:25:34.831,357,1744.868
2026-07-27 14:25:34.832,356,1739.98
2026-07-27 14:25:34.834,354,1730.205
2026-07-27 14:25:34.861,352,1720.43
2026-07-27 14:25:34.862,352,1720.43
2026-07-27 14:25:34.862,352,1720.43
2026-07-27 14:25:34.862,355,1735.093
2026-07-27 14:25:34.862,356,1739.98
2026-07-27 14:25:34.865,357,1744.868
2026-07-27 14:25:34.894,358,1749.756
2026-07-27 14:25:34.894,362,1769.306
2026-07-27 14:25:34.894,372,1818.182
2026-07-27 14:25:34.894,380,1857.283
2026-07-27 14:25:34.894,405,1979.472
2026-07-27 14:25:34.925,451,2204.301
2026-07-27 14:25:34.925,495,2419.355
2026-07-27 14:25:34.926,471,2302.053
2026-07-27 14:25:34.926,364,1779.081
2026-07-27 14:25:34.926,273,1334.311
2026-07-27 14:25:34.926,229,1119.257
2026-07-27 14:25:34.929,269,1314.761
2026-07-27 14:25:34.933,324,1583.578
2026-07-27 14:25:34.972,357,1744.868
2026-07-27 14:25:34.972,368,1798.631
2026-07-27 14:25:34.972,372,1818.182
2026-07-27 14:25:34.972,374,1827.957
2026-07-27 14:25:34.973,371,1813.294
2026-07-27 14:25:34.973,364,1779.081
2026-07-27 14:25:34.973,362,1769.306
2026-07-27 14:25:34.975,367,1793.744
2026-07-27 14:25:35.003,371,1813.294
2026-07-27 14:25:35.003,369,1803.519
2026-07-27 14:25:35.003,368,1798.631
2026-07-27 14:25:35.003,369,1803.519
2026-07-27 14:25:35.003,372,1818.182
2026-07-27 14:25:35.006,371,1813.294
2026-07-27 14:25:35.034,370,1808.407
2026-07-27 14:25:35.034,373,1823.069
2026-07-27 14:25:35.034,375,1832.845
2026-07-27 14:25:35.034,374,1827.957
2026-07-27 14:25:35.035,372,1818.182
2026-07-27 14:25:35.037,374,1827.957
2026-07-27 14:25:35.065,376,1837.732
2026-07-27 14:25:35.065,375,1832.845
2026-07-27 14:25:35.065,375,1832.845
2026-07-27 14:25:35.065,377,1842.62
2026-07-27 14:25:35.066,378,1847.507
2026-07-27 14:25:35.068,380,1857.283
2026-07-27 14:25:35.096,383,1871.945
2026-07-27 14:25:35.097,387,1891.496
2026-07-27 14:25:35.097,394,1925.709
2026-07-27 14:25:35.097,399,1950.147
2026-07-27 14:25:35.097,403,1969.697
2026-07-27 14:25:35.099,411,2008.798
2026-07-27 14:25:35.128,420,2052.786
2026-07-27 14:25:35.128,425,2077.224
2026-07-27 14:25:35.128,430,2101.662
2026-07-27 14:25:35.128,435,2126.1
2026-07-27 14:25:35.128,438,2140.762
2026-07-27 14:25:35.130,436,2130.987
2026-07-27 14:25:35.174,429,2096.774
2026-07-27 14:25:35.174,421,2057.674
2026-07-27 14:25:35.174,404,1974.585
2026-07-27 14:25:35.175,387,1891.496
2026-07-27 14:25:35.175,369,1803.519
2026-07-27 14:25:35.175,357,1744.868
2026-07-27 14:25:35.175,345,1686.217
2026-07-27 14:25:35.175,335,1637.341
2026-07-27 14:25:35.220,329,1608.016
2026-07-27 14:25:35.220,325,1588.465
2026-07-27 14:25:35.220,321,1568.915
2026-07-27 14:25:35.220,316,1544.477
2026-07-27 14:25:35.220,312,1524.927
2026-07-27 14:25:35.221,314,1534.702
2026-07-27 14:25:35.221,313,1529.814
2026-07-27 14:25:35.221,310,1515.152
2026-07-27 14:25:35.221,311,1520.039
2026-07-27 14:25:35.224,315,1539.589
2026-07-27 14:25:35.266,313,1529.814
2026-07-27 14:25:35.266,313,1529.814
2026-07-27 14:25:35.266,314,1534.702
2026-07-27 14:25:35.267,318,1554.252
2026-07-27 14:25:35.267,316,1544.477
2026-07-27 14:25:35.267,314,1534.702
2026-07-27 14:25:35.267,316,1544.477
2026-07-27 14:25:35.267,317,1549.365
2026-07-27 14:25:35.271,316,1544.477
2026-07-27 14:25:35.313,314,1534.702
2026-07-27 14:25:35.316,316,1544.477
2026-07-27 14:25:35.316,317,1549.365
2026-07-27 14:25:35.316,316,1544.477
2026-07-27 14:25:35.316,316,1544.477
2026-07-27 14:25:35.316,318,1554.252
2026-07-27 14:25:35.316,320,1564.027
2026-07-27 14:25:35.317,320,1564.027
2026-07-27 14:25:35.318,318,1554.252
2026-07-27 14:25:35.359,317,1549.365
2026-07-27 14:25:35.360,322,1573.803
2026-07-27 14:25:35.360,320,1564.027
2026-07-27 14:25:35.360,317,1549.365
2026-07-27 14:25:35.361,320,1564.027
2026-07-27 14:25:35.361,320,1564.027
2026-07-27 14:25:35.361,320,1564.027
2026-07-27 14:25:35.361,320,1564.027
2026-07-27 14:25:35.364,321,1568.915
2026-07-27 14:25:35.406,320,1564.027
2026-07-27 14:25:35.406,320,1564.027
2026-07-27 14:25:35.406,321,1568.915
2026-07-27 14:25:35.407,322,1573.803
2026-07-27 14:25:35.407,320,1564.027
2026-07-27 14:25:35.407,320,1564.027
2026-07-27 14:25:35.407,319,1559.14
2026-07-27 14:25:35.407,320,1564.027
2026-07-27 14:25:35.453,320,1564.027
2026-07-27 14:25:35.453,320,1564.027
2026-07-27 14:25:35.453,320,1564.027
2026-07-27 14:25:35.453,321,1568.915
2026-07-27 14:25:35.453,322,1573.803
2026-07-27 14:25:35.453,321,1568.915
2026-07-27 14:25:35.454,320,1564.027
2026-07-27 14:25:35.454,322,1573.803
2026-07-27 14:25:35.457,321,1568.915
2026-07-27 14:25:35.458,320,1564.027
2026-07-27 14:25:35.499,319,1559.14
2026-07-27 14:25:35.499,321,1568.915
2026-07-27 14:25:35.500,318,1554.252
2026-07-27 14:25:35.500,317,1549.365
2026-07-27 14:25:35.500,319,1559.14
2026-07-27 14:25:35.500,320,1564.027
2026-07-27 14:25:35.500,319,1559.14
2026-07-27 14:25:35.506,320,1564.027
2026-07-27 14:25:35.506,320,1564.027
2026-07-27 14:25:35.510,321,1568.915
2026-07-27 14:25:35.562,317,1549.365
2026-07-27 14:25:35.562,315,1539.589
2026-07-27 14:25:35.562,316,1544.477
2026-07-27 14:25:35.562,317,1549.365
2026-07-27 14:25:35.562,315,1539.589
2026-07-27 14:25:35.563,312,1524.927
2026-07-27 14:25:35.563,313,1529.814
2026-07-27 14:25:35.563,316,1544.477
2026-07-27 14:25:35.563,315,1539.589
2026-07-27 14:25:35.563,313,1529.814
2026-07-27 14:25:35.567,315,1539.589
2026-07-27 14:25:35.608,317,1549.365
2026-07-27 14:25:35.609,316,1544.477
2026-07-27 14:25:35.609,314,1534.702
2026-07-27 14:25:35.609,315,1539.589
2026-07-27 14:25:35.609,314,1534.702
2026-07-27 14:25:35.609,314,1534.702
2026-07-27 14:25:35.609,315,1539.589
2026-07-27 14:25:35.609,315,1539.589
2026-07-27 14:25:35.657,314,1534.702
2026-07-27 14:25:35.657,314,1534.702
2026-07-27 14:25:35.657,315,1539.589
2026-07-27 14:25:35.657,314,1534.702
2026-07-27 14:25:35.657,314,1534.702
2026-07-27 14:25:35.658,314,1534.702
2026-07-27 14:25:35.658,313,1529.814
2026-07-27 14:25:35.658,311,1520.039
2026-07-27 14:25:35.658,311,1520.039
2026-07-27 14:25:35.661,311,1520.039
2026-07-27 14:25:35.704,310,1515.152
2026-07-27 14:25:35.704,312,1524.927
2026-07-27 14:25:35.705,313,1529.814
2026-07-27 14:25:35.705,313,1529.814
2026-07-27 14:25:35.706,313,1529.814
2026-07-27 14:25:35.706,314,1534.702
2026-07-27 14:25:35.706,312,1524.927
2026-07-27 14:25:35.707,312,1524.927
2026-07-27 14:25:35.766,312,1524.927
2026-07-27 14:25:35.766,314,1534.702
2026-07-27 14:25:35.766,312,1524.927
2026-07-27 14:25:35.766,310,1515.152
2026-07-27 14:25:35.766,310,1515.152
2026-07-27 14:25:35.767,314,1534.702
2026-07-27 14:25:35.767,315,1539.589
2026-07-27 14:25:35.767,314,1534.702
2026-07-27 14:25:35.767,315,1539.589
2026-07-27 14:25:35.767,322,1573.803
2026-07-27 14:25:35.767,321,1568.915
2026-07-27 14:25:35.767,320,1564.027
2026-07-27 14:25:35.770,319,1559.14
2026-07-27 14:25:35.812,320,1564.027
2026-07-27 14:25:35.812,315,1539.589
2026-07-27 14:25:35.812,313,1529.814
2026-07-27 14:25:35.812,314,1534.702
2026-07-27 14:25:35.813,311,1520.039
2026-07-27 14:25:35.816,309,1510.264
2026-07-27 14:25:35.816,308,1505.376
2026-07-27 14:25:35.816,309,1510.264
2026-07-27 14:25:35.818,311,1520.039
2026-07-27 14:25:35.823,310,1515.152
2026-07-27 14:25:35.873,311,1520.039
2026-07-27 14:25:35.874,315,1539.589
2026-07-27 14:25:35.874,324,1583.578
2026-07-27 14:25:35.874,333,1627.566
2026-07-27 14:25:35.874,346,1691.105
2026-07-27 14:25:35.874,385,1881.72
2026-07-27 14:25:35.874,438,2140.762
2026-07-27 14:25:35.875,469,2292.278
2026-07-27 14:25:35.875,395,1930.596
2026-07-27 14:25:35.876,271,1324.536
2026-07-27 14:25:35.879,194,948.192
2026-07-27 14:25:35.920,196,957.967
2026-07-27 14:25:35.920,254,1241.447
2026-07-27 14:25:35.921,297,1451.613
2026-07-27 14:25:35.921,313,1529.814
2026-07-27 14:25:35.921,322,1573.803
2026-07-27 14:25:35.921,328,1603.128
2026-07-27 14:25:35.921,329,1608.016
2026-07-27 14:25:35.921,325,1588.465
2026-07-27 14:25:35.967,321,1568.915
2026-07-27 14:25:35.967,323,1578.69
2026-07-27 14:25:35.967,323,1578.69
2026-07-27 14:25:35.967,324,1583.578
2026-07-27 14:25:35.967,326,1593.353
2026-07-27 14:25:35.967,326,1593.353
2026-07-27 14:25:35.968,326,1593.353
2026-07-27 14:25:35.968,325,1588.465
2026-07-27 14:25:35.968,326,1593.353
2026-07-27 14:25:36.013,325,1588.465
2026-07-27 14:25:36.013,328,1603.128
2026-07-27 14:25:36.013,328,1603.128
2026-07-27 14:25:36.013,330,1612.903
2026-07-27 14:25:36.013,331,1617.791
2026-07-27 14:25:36.014,333,1627.566
2026-07-27 14:25:36.014,334,1632.454
2026-07-27 14:25:36.014,336,1642.229
2026-07-27 14:25:36.018,339,1656.891
2026-07-27 14:25:36.020,344,1681.329
2026-07-27 14:25:36.058,344,1681.329
2026-07-27 14:25:36.059,344,1681.329
2026-07-27 14:25:36.059,351,1715.543
2026-07-27 14:25:36.059,358,1749.756
2026-07-27 14:25:36.059,364,1779.081
2026-07-27 14:25:36.059,368,1798.631
2026-07-27 14:25:36.059,377,1842.62
2026-07-27 14:25:36.061,386,1886.608
2026-07-27 14:25:36.105,392,1915.934
2026-07-27 14:25:36.106,395,1930.596
2026-07-27 14:25:36.106,399,1950.147
2026-07-27 14:25:36.106,403,1969.697
2026-07-27 14:25:36.106,403,1969.697
2026-07-27 14:25:36.107,398,1945.259
2026-07-27 14:25:36.107,392,1915.934
2026-07-27 14:25:36.107,379,1852.395
2026-07-27 14:25:36.109,362,1769.306
2026-07-27 14:25:36.114,345,1686.217
2026-07-27 14:25:36.152,330,1612.903
2026-07-27 14:25:36.152,320,1564.027
2026-07-27 14:25:36.153,310,1515.152
2026-07-27 14:25:36.153,302,1476.051
2026-07-27 14:25:36.153,296,1446.725
2026-07-27 14:25:36.153,292,1427.175
2026-07-27 14:25:36.153,289,1412.512
2026-07-27 14:25:36.155,286,1397.849
2026-07-27 14:25:36.198,287,1402.737
2026-07-27 14:25:36.199,287,1402.737
2026-07-27 14:25:36.199,286,1397.849
2026-07-27 14:25:36.199,284,1388.074
2026-07-27 14:25:36.199,286,1397.849
2026-07-27 14:25:36.199,288,1407.625
2026-07-27 14:25:36.199,290,1417.4
2026-07-27 14:25:36.200,291,1422.287
2026-07-27 14:25:36.202,291,1422.287
2026-07-27 14:25:36.245,291,1422.287
2026-07-27 14:25:36.245,292,1427.175
2026-07-27 14:25:36.245,291,1422.287
2026-07-27 14:25:36.245,295,1441.838
2026-07-27 14:25:36.246,294,1436.95
2026-07-27 14:25:36.246,293,1432.063
2026-07-27 14:25:36.246,294,1436.95
2026-07-27 14:25:36.246,298,1456.5
2026-07-27 14:25:36.292,298,1456.5
2026-07-27 14:25:36.292,296,1446.725
2026-07-27 14:25:36.292,297,1451.613
2026-07-27 14:25:36.292,301,1471.163
2026-07-27 14:25:36.292,300,1466.276
2026-07-27 14:25:36.293,298,1456.5
2026-07-27 14:25:36.293,300,1466.276
2026-07-27 14:25:36.293,303,1480.938
2026-07-27 14:25:36.293,304,1485.826
2026-07-27 14:25:36.295,303,1480.938
2026-07-27 14:25:36.339,304,1485.826
2026-07-27 14:25:36.339,306,1495.601
2026-07-27 14:25:36.340,304,1485.826
2026-07-27 14:25:36.340,303,1480.938
2026-07-27 14:25:36.344,307,1500.489
2026-07-27 14:25:36.344,308,1505.376
2026-07-27 14:25:36.344,308,1505.376
2026-07-27 14:25:36.344,308,1505.376
2026-07-27 14:25:36.344,310,1515.152
2026-07-27 14:25:36.347,310,1515.152
2026-07-27 14:25:36.386,308,1505.376
2026-07-27 14:25:36.386,306,1495.601
2026-07-27 14:25:36.386,308,1505.376
2026-07-27 14:25:36.387,310,1515.152
2026-07-27 14:25:36.387,307,1500.489
2026-07-27 14:25:36.387,306,1495.601
2026-07-27 14:25:36.388,310,1515.152
2026-07-27 14:25:36.389,311,1520.039
2026-07-27 14:25:36.432,312,1524.927
2026-07-27 14:25:36.432,312,1524.927
2026-07-27 14:25:36.433,312,1524.927
2026-07-27 14:25:36.433,314,1534.702
2026-07-27 14:25:36.433,315,1539.589
2026-07-27 14:25:36.433,316,1544.477
2026-07-27 14:25:36.433,316,1544.477
2026-07-27 14:25:36.433,314,1534.702
2026-07-27 14:25:36.436,316,1544.477
2026-07-27 14:25:36.479,317,1549.365
2026-07-27 14:25:36.479,319,1559.14
2026-07-27 14:25:36.480,320,1564.027
2026-07-27 14:25:36.480,319,1559.14
2026-07-27 14:25:36.480,321,1568.915
2026-07-27 14:25:36.480,323,1578.69
2026-07-27 14:25:36.480,323,1578.69
2026-07-27 14:25:36.481,322,1573.803
2026-07-27 14:25:36.525,321,1568.915
2026-07-27 14:25:36.526,325,1588.465
2026-07-27 14:25:36.526,324,1583.578
2026-07-27 14:25:36.526,324,1583.578
2026-07-27 14:25:36.526,324,1583.578
2026-07-27 14:25:36.526,325,1588.465
2026-07-27 14:25:36.526,325,1588.465
2026-07-27 14:25:36.526,323,1578.69
2026-07-27 14:25:36.527,323,1578.69
2026-07-27 14:25:36.529,328,1603.128
2026-07-27 14:25:36.571,327,1598.24
2026-07-27 14:25:36.571,325,1588.465
2026-07-27 14:25:36.571,325,1588.465
2026-07-27 14:25:36.572,328,1603.128
2026-07-27 14:25:36.572,328,1603.128
2026-07-27 14:25:36.572,327,1598.24
2026-07-27 14:25:36.572,327,1598.24
2026-07-27 14:25:36.572,330,1612.903
2026-07-27 14:25:36.576,329,1608.016
2026-07-27 14:25:36.617,328,1603.128
2026-07-27 14:25:36.618,329,1608.016
2026-07-27 14:25:36.618,332,1622.678
2026-07-27 14:25:36.618,332,1622.678
2026-07-27 14:25:36.618,330,1612.903
2026-07-27 14:25:36.618,330,1612.903
2026-07-27 14:25:36.619,331,1617.791
2026-07-27 14:25:36.619,331,1617.791
2026-07-27 14:25:36.665,329,1608.016
2026-07-27 14:25:36.665,330,1612.903
2026-07-27 14:25:36.665,329,1608.016
2026-07-27 14:25:36.665,329,1608.016
2026-07-27 14:25:36.665,329,1608.016
2026-07-27 14:25:36.665,329,1608.016
2026-07-27 14:25:36.665,329,1608.016
2026-07-27 14:25:36.666,328,1603.128
2026-07-27 14:25:36.671,327,1598.24
2026-07-27 14:25:36.671,330,1612.903
2026-07-27 14:25:36.675,330,1612.903
2026-07-27 14:25:36.711,330,1612.903
2026-07-27 14:25:36.712,328,1603.128
2026-07-27 14:25:36.712,330,1612.903
2026-07-27 14:25:36.712,331,1617.791
2026-07-27 14:25:36.712,331,1617.791
2026-07-27 14:25:36.712,331,1617.791
2026-07-27 14:25:36.712,334,1632.454
2026-07-27 14:25:36.717,334,1632.454
2026-07-27 14:25:36.758,335,1637.341
2026-07-27 14:25:36.758,338,1652.004
2026-07-27 14:25:36.758,343,1676.442
2026-07-27 14:25:36.759,344,1681.329
2026-07-27 14:25:36.759,344,1681.329
2026-07-27 14:25:36.759,343,1676.442
2026-07-27 14:25:36.759,341,1666.667
2026-07-27 14:25:36.763,337,1647.116
2026-07-27 14:25:36.765,336,1642.229
2026-07-27 14:25:36.770,337,1647.116
2026-07-27 14:25:36.775,335,1637.341
2026-07-27 14:25:36.779,332,1622.678
2026-07-27 14:25:36.821,331,1617.791
2026-07-27 14:25:36.821,336,1642.229
2026-07-27 14:25:36.821,338,1652.004
2026-07-27 14:25:36.821,338,1652.004
2026-07-27 14:25:36.821,338,1652.004
2026-07-27 14:25:36.821,343,1676.442
2026-07-27 14:25:36.821,355,1735.093
2026-07-27 14:25:36.867,364,1779.081
2026-07-27 14:25:36.867,385,1881.72
2026-07-27 14:25:36.867,430,2101.662
2026-07-27 14:25:36.867,478,2336.266
2026-07-27 14:25:36.871,470,2297.165
2026-07-27 14:25:36.871,359,1754.643
2026-07-27 14:25:36.871,256,1251.222
2026-07-27 14:25:36.872,211,1031.281
2026-07-27 14:25:36.872,250,1221.896
2026-07-27 14:25:36.875,305,1490.714
2026-07-27 14:25:36.875,334,1632.454
2026-07-27 14:25:36.878,345,1686.217
2026-07-27 14:25:36.914,352,1720.43
2026-07-27 14:25:36.914,355,1735.093
2026-07-27 14:25:36.914,353,1725.318
2026-07-27 14:25:36.915,348,1700.88
2026-07-27 14:25:36.915,348,1700.88
2026-07-27 14:25:36.915,350,1710.655
2026-07-27 14:25:36.916,353,1725.318
2026-07-27 14:25:36.920,353,1725.318
2026-07-27 14:25:36.960,352,1720.43
2026-07-27 14:25:36.960,352,1720.43
2026-07-27 14:25:36.960,352,1720.43
2026-07-27 14:25:36.961,353,1725.318
2026-07-27 14:25:36.961,354,1730.205
2026-07-27 14:25:36.961,354,1730.205
2026-07-27 14:25:36.961,355,1735.093
2026-07-27 14:25:36.992,355,1735.093
2026-07-27 14:25:36.992,356,1739.98
2026-07-27 14:25:36.992,357,1744.868
2026-07-27 14:25:36.992,357,1744.868
2026-07-27 14:25:36.992,357,1744.868
2026-07-27 14:25:36.992,357,1744.868
2026-07-27 14:25:36.995,359,1754.643
2026-07-27 14:25:36.997,363,1774.194
2026-07-27 14:25:37.039,365,1783.969
2026-07-27 14:25:37.039,366,1788.856
2026-07-27 14:25:37.039,369,1803.519
2026-07-27 14:25:37.039,376,1837.732
2026-07-27 14:25:37.039,381,1862.17
2026-07-27 14:25:37.039,388,1896.383
2026-07-27 14:25:37.039,396,1935.484
2026-07-27 14:25:37.039,402,1964.809
2026-07-27 14:25:37.069,404,1974.585
2026-07-27 14:25:37.069,409,1999.022
2026-07-27 14:25:37.069,415,2028.348
2026-07-27 14:25:37.069,417,2038.123
2026-07-27 14:25:37.070,415,2028.348
2026-07-27 14:25:37.070,408,1994.135
2026-07-27 14:25:37.100,400,1955.034
2026-07-27 14:25:37.100,387,1891.496
2026-07-27 14:25:37.100,369,1803.519
2026-07-27 14:25:37.100,352,1720.43
2026-07-27 14:25:37.100,339,1656.891
2026-07-27 14:25:37.101,328,1603.128
2026-07-27 14:25:37.130,318,1554.252
2026-07-27 14:25:37.130,310,1515.152
2026-07-27 14:25:37.130,304,1485.826
2026-07-27 14:25:37.130,301,1471.163
2026-07-27 14:25:37.131,300,1466.276
2026-07-27 14:25:37.133,297,1451.613
2026-07-27 14:25:37.177,295,1441.838
2026-07-27 14:25:37.177,295,1441.838
2026-07-27 14:25:37.177,294,1436.95
2026-07-27 14:25:37.177,293,1432.063
2026-07-27 14:25:37.177,293,1432.063
2026-07-27 14:25:37.177,295,1441.838
2026-07-27 14:25:37.178,297,1451.613
2026-07-27 14:25:37.178,299,1461.388
2026-07-27 14:25:37.180,304,1485.826
2026-07-27 14:25:37.207,307,1500.489
2026-07-27 14:25:37.208,307,1500.489
2026-07-27 14:25:37.208,305,1490.714
2026-07-27 14:25:37.208,302,1476.051
2026-07-27 14:25:37.208,301,1471.163
2026-07-27 14:25:37.211,297,1451.613
2026-07-27 14:25:37.239,293,1432.063
2026-07-27 14:25:37.239,297,1451.613
2026-07-27 14:25:37.239,309,1510.264
2026-07-27 14:25:37.239,322,1573.803
2026-07-27 14:25:37.241,325,1588.465
2026-07-27 14:25:37.243,323,1578.69
2026-07-27 14:25:37.247,320,1564.027
2026-07-27 14:25:37.284,316,1544.477
2026-07-27 14:25:37.284,315,1539.589
2026-07-27 14:25:37.285,319,1559.14
2026-07-27 14:25:37.285,320,1564.027
2026-07-27 14:25:37.285,320,1564.027
2026-07-27 14:25:37.285,320,1564.027
2026-07-27 14:25:37.285,322,1573.803
2026-07-27 14:25:37.289,320,1564.027
2026-07-27 14:25:37.315,321,1568.915
2026-07-27 14:25:37.316,324,1583.578
2026-07-27 14:25:37.316,326,1593.353
2026-07-27 14:25:37.316,324,1583.578
2026-07-27 14:25:37.316,322,1573.803
2026-07-27 14:25:37.320,325,1588.465
2026-07-27 14:25:37.346,325,1588.465
2026-07-27 14:25:37.346,323,1578.69
2026-07-27 14:25:37.346,321,1568.915
2026-07-27 14:25:37.346,323,1578.69
2026-07-27 14:25:37.347,323,1578.69
2026-07-27 14:25:37.392,320,1564.027
2026-07-27 14:25:37.393,321,1568.915
2026-07-27 14:25:37.396,325,1588.465
2026-07-27 14:25:37.396,324,1583.578
2026-07-27 14:25:37.397,324,1583.578
2026-07-27 14:25:37.397,323,1578.69
2026-07-27 14:25:37.397,322,1573.803
2026-07-27 14:25:37.397,323,1578.69
2026-07-27 14:25:37.399,324,1583.578
2026-07-27 14:25:37.400,324,1583.578
2026-07-27 14:25:37.403,325,1588.465
2026-07-27 14:25:37.454,327,1598.24
2026-07-27 14:25:37.454,325,1588.465
2026-07-27 14:25:37.454,320,1564.027
2026-07-27 14:25:37.454,317,1549.365
2026-07-27 14:25:37.455,320,1564.027
2026-07-27 14:25:37.455,328,1603.128
2026-07-27 14:25:37.455,327,1598.24
2026-07-27 14:25:37.455,322,1573.803
2026-07-27 14:25:37.455,320,1564.027
2026-07-27 14:25:37.456,326,1593.353
2026-07-27 14:25:37.500,324,1583.578
2026-07-27 14:25:37.501,326,1593.353
2026-07-27 14:25:37.501,332,1622.678
2026-07-27 14:25:37.501,335,1637.341
2026-07-27 14:25:37.501,336,1642.229
2026-07-27 14:25:37.502,337,1647.116
2026-07-27 14:25:37.502,333,1627.566
2026-07-27 14:25:37.502,332,1622.678
2026-07-27 14:25:37.502,331,1617.791
2026-07-27 14:25:37.546,335,1637.341
2026-07-27 14:25:37.547,332,1622.678
2026-07-27 14:25:37.547,330,1612.903
2026-07-27 14:25:37.547,332,1622.678
2026-07-27 14:25:37.547,333,1627.566
2026-07-27 14:25:37.547,330,1612.903
2026-07-27 14:25:37.548,328,1603.128
2026-07-27 14:25:37.548,330,1612.903
2026-07-27 14:25:37.594,337,1647.116
2026-07-27 14:25:37.594,336,1642.229
2026-07-27 14:25:37.594,333,1627.566
2026-07-27 14:25:37.595,332,1622.678
2026-07-27 14:25:37.595,333,1627.566
2026-07-27 14:25:37.595,332,1622.678
2026-07-27 14:25:37.595,333,1627.566
2026-07-27 14:25:37.595,335,1637.341
2026-07-27 14:25:37.596,338,1652.004
2026-07-27 14:25:37.596,332,1622.678
2026-07-27 14:25:37.640,330,1612.903
2026-07-27 14:25:37.640,334,1632.454
2026-07-27 14:25:37.641,339,1656.891
2026-07-27 14:25:37.641,337,1647.116
2026-07-27 14:25:37.641,335,1637.341
2026-07-27 14:25:37.641,338,1652.004
2026-07-27 14:25:37.641,340,1661.779
2026-07-27 14:25:37.642,339,1656.891
2026-07-27 14:25:37.642,338,1652.004
2026-07-27 14:25:37.686,340,1661.779
2026-07-27 14:25:37.687,342,1671.554
2026-07-27 14:25:37.687,341,1666.667
2026-07-27 14:25:37.687,340,1661.779
2026-07-27 14:25:37.687,342,1671.554
2026-07-27 14:25:37.687,343,1676.442
2026-07-27 14:25:37.688,343,1676.442
2026-07-27 14:25:37.688,339,1656.891
2026-07-27 14:25:37.689,345,1686.217
2026-07-27 14:25:37.733,348,1700.88
2026-07-27 14:25:37.733,349,1705.767
2026-07-27 14:25:37.734,349,1705.767
2026-07-27 14:25:37.734,351,1715.543
2026-07-27 14:25:37.734,351,1715.543
2026-07-27 14:25:37.734,353,1725.318
2026-07-27 14:25:37.735,354,1730.205
2026-07-27 14:25:37.735,351,1715.543
2026-07-27 14:25:37.736,348,1700.88
2026-07-27 14:25:37.779,348,1700.88
2026-07-27 14:25:37.779,345,1686.217
2026-07-27 14:25:37.779,347,1695.992
2026-07-27 14:25:37.780,344,1681.329
2026-07-27 14:25:37.780,342,1671.554
2026-07-27 14:25:37.780,343,1676.442
2026-07-27 14:25:37.780,349,1705.767
2026-07-27 14:25:37.780,349,1705.767
2026-07-27 14:25:37.783,348,1700.88
2026-07-27 14:25:37.825,353,1725.318
2026-07-27 14:25:37.826,370,1808.407
2026-07-27 14:25:37.826,377,1842.62
2026-07-27 14:25:37.826,406,1984.36
2026-07-27 14:25:37.826,457,2233.627
2026-07-27 14:25:37.826,488,2385.142
2026-07-27 14:25:37.826,423,2067.449
2026-07-27 14:25:37.827,306,1495.601
2026-07-27 14:25:37.830,237,1158.358
2026-07-27 14:25:37.873,225,1099.707
2026-07-27 14:25:37.873,273,1334.311
2026-07-27 14:25:37.873,315,1539.589
2026-07-27 14:25:37.873,339,1656.891
2026-07-27 14:25:37.873,348,1700.88
2026-07-27 14:25:37.873,356,1739.98
2026-07-27 14:25:37.873,353,1725.318
2026-07-27 14:25:37.874,350,1710.655
2026-07-27 14:25:37.876,349,1705.767
2026-07-27 14:25:37.882,348,1700.88
2026-07-27 14:25:37.920,346,1691.105
2026-07-27 14:25:37.920,348,1700.88
2026-07-27 14:25:37.920,349,1705.767
2026-07-27 14:25:37.921,348,1700.88
2026-07-27 14:25:37.921,347,1695.992
2026-07-27 14:25:37.921,348,1700.88
2026-07-27 14:25:37.921,349,1705.767
2026-07-27 14:25:37.923,347,1695.992
2026-07-27 14:25:37.967,345,1686.217
2026-07-27 14:25:37.967,346,1691.105
2026-07-27 14:25:37.967,348,1700.88
2026-07-27 14:25:37.967,347,1695.992
2026-07-27 14:25:37.968,345,1686.217
2026-07-27 14:25:37.968,348,1700.88
2026-07-27 14:25:37.968,349,1705.767
2026-07-27 14:25:37.968,350,1710.655
2026-07-27 14:25:37.970,351,1715.543
2026-07-27 14:25:38.013,354,1730.205
2026-07-27 14:25:38.013,356,1739.98
2026-07-27 14:25:38.013,357,1744.868
2026-07-27 14:25:38.013,359,1754.643
2026-07-27 14:25:38.014,367,1793.744
2026-07-27 14:25:38.014,374,1827.957
2026-07-27 14:25:38.014,380,1857.283
2026-07-27 14:25:38.014,386,1886.608
2026-07-27 14:25:38.060,397,1940.371
2026-07-27 14:25:38.061,402,1964.809
2026-07-27 14:25:38.062,406,1984.36
2026-07-27 14:25:38.062,408,1994.135
2026-07-27 14:25:38.062,412,2013.685
2026-07-27 14:25:38.063,409,1999.022
2026-07-27 14:25:38.063,402,1964.809
2026-07-27 14:25:38.063,393,1920.821
2026-07-27 14:25:38.064,382,1867.058
2026-07-27 14:25:38.064,361,1764.418
2026-07-27 14:25:38.106,342,1671.554
2026-07-27 14:25:38.106,327,1598.24
2026-07-27 14:25:38.106,315,1539.589
2026-07-27 14:25:38.106,307,1500.489
2026-07-27 14:25:38.106,296,1446.725
2026-07-27 14:25:38.106,294,1436.95
2026-07-27 14:25:38.107,294,1436.95
2026-07-27 14:25:38.107,293,1432.063
2026-07-27 14:25:38.110,289,1412.512
2026-07-27 14:25:38.152,286,1397.849
2026-07-27 14:25:38.152,286,1397.849
2026-07-27 14:25:38.153,287,1402.737
2026-07-27 14:25:38.153,288,1407.625
2026-07-27 14:25:38.153,290,1417.4
2026-07-27 14:25:38.153,291,1422.287
2026-07-27 14:25:38.153,291,1422.287
2026-07-27 14:25:38.153,290,1417.4
2026-07-27 14:25:38.158,290,1417.4
2026-07-27 14:25:38.198,292,1427.175
2026-07-27 14:25:38.199,292,1427.175
2026-07-27 14:25:38.199,290,1417.4
2026-07-27 14:25:38.199,294,1436.95
2026-07-27 14:25:38.199,296,1446.725
2026-07-27 14:25:38.199,297,1451.613
2026-07-27 14:25:38.199,294,1436.95
2026-07-27 14:25:38.200,294,1436.95
2026-07-27 14:25:38.246,297,1451.613
2026-07-27 14:25:38.246,299,1461.388
2026-07-27 14:25:38.246,299,1461.388
2026-07-27 14:25:38.246,299,1461.388
2026-07-27 14:25:38.246,301,1471.163
2026-07-27 14:25:38.246,300,1466.276
2026-07-27 14:25:38.247,298,1456.5
2026-07-27 14:25:38.247,301,1471.163
2026-07-27 14:25:38.248,303,1480.938
2026-07-27 14:25:38.251,305,1490.714
2026-07-27 14:25:38.293,303,1480.938
2026-07-27 14:25:38.293,303,1480.938
2026-07-27 14:25:38.293,305,1490.714
2026-07-27 14:25:38.293,306,1495.601
2026-07-27 14:25:38.293,308,1505.376
2026-07-27 14:25:38.293,309,1510.264
2026-07-27 14:25:38.294,307,1500.489
2026-07-27 14:25:38.294,305,1490.714
2026-07-27 14:25:38.298,307,1500.489
2026-07-27 14:25:38.340,310,1515.152
2026-07-27 14:25:38.340,309,1510.264
2026-07-27 14:25:38.340,307,1500.489
2026-07-27 14:25:38.341,307,1500.489
2026-07-27 14:25:38.341,308,1505.376
2026-07-27 14:25:38.341,307,1500.489
2026-07-27 14:25:38.341,308,1505.376
2026-07-27 14:25:38.341,310,1515.152
2026-07-27 14:25:38.345,310,1515.152
2026-07-27 14:25:38.388,310,1515.152
2026-07-27 14:25:38.388,307,1500.489
2026-07-27 14:25:38.388,310,1515.152
2026-07-27 14:25:38.388,312,1524.927
2026-07-27 14:25:38.388,311,1520.039
2026-07-27 14:25:38.388,310,1515.152
2026-07-27 14:25:38.388,312,1524.927
2026-07-27 14:25:38.388,312,1524.927
2026-07-27 14:25:38.434,311,1520.039
2026-07-27 14:25:38.434,311,1520.039
2026-07-27 14:25:38.437,312,1524.927
2026-07-27 14:25:38.437,313,1529.814
2026-07-27 14:25:38.437,314,1534.702
2026-07-27 14:25:38.437,313,1529.814
2026-07-27 14:25:38.438,313,1529.814
2026-07-27 14:25:38.438,315,1539.589
2026-07-27 14:25:38.438,315,1539.589
2026-07-27 14:25:38.439,315,1539.589
2026-07-27 14:25:38.480,317,1549.365
2026-07-27 14:25:38.481,316,1544.477
2026-07-27 14:25:38.481,315,1539.589
2026-07-27 14:25:38.481,314,1534.702
2026-07-27 14:25:38.481,315,1539.589
2026-07-27 14:25:38.481,314,1534.702
2026-07-27 14:25:38.481,314,1534.702
2026-07-27 14:25:38.481,316,1544.477
2026-07-27 14:25:38.485,318,1554.252
2026-07-27 14:25:38.528,315,1539.589
2026-07-27 14:25:38.528,316,1544.477
2026-07-27 14:25:38.528,316,1544.477
2026-07-27 14:25:38.528,317,1549.365
2026-07-27 14:25:38.528,320,1564.027
2026-07-27 14:25:38.528,322,1573.803
2026-07-27 14:25:38.529,322,1573.803
2026-07-27 14:25:38.532,322,1573.803
2026-07-27 14:25:38.576,324,1583.578
2026-07-27 14:25:38.577,324,1583.578
2026-07-27 14:25:38.577,321,1568.915
2026-07-27 14:25:38.577,323,1578.69
2026-07-27 14:25:38.577,321,1568.915
2026-07-27 14:25:38.577,324,1583.578
2026-07-27 14:25:38.577,327,1598.24
2026-07-27 14:25:38.577,327,1598.24
2026-07-27 14:25:38.577,326,1593.353
2026-07-27 14:25:38.579,328,1603.128
2026-07-27 14:25:38.621,330,1612.903
2026-07-27 14:25:38.621,332,1622.678
2026-07-27 14:25:38.621,332,1622.678
2026-07-27 14:25:38.621,328,1603.128
2026-07-27 14:25:38.621,325,1588.465
2026-07-27 14:25:38.621,324,1583.578
2026-07-27 14:25:38.622,323,1578.69
2026-07-27 14:25:38.622,322,1573.803
2026-07-27 14:25:38.625,327,1598.24
2026-07-27 14:25:38.667,329,1608.016
2026-07-27 14:25:38.667,330,1612.903
2026-07-27 14:25:38.667,328,1603.128
2026-07-27 14:25:38.668,327,1598.24
2026-07-27 14:25:38.668,324,1583.578
2026-07-27 14:25:38.669,324,1583.578
2026-07-27 14:25:38.669,323,1578.69
2026-07-27 14:25:38.670,324,1583.578
2026-07-27 14:25:38.714,328,1603.128
2026-07-27 14:25:38.714,329,1608.016
2026-07-27 14:25:38.714,329,1608.016
2026-07-27 14:25:38.714,329,1608.016
2026-07-27 14:25:38.714,332,1622.678
2026-07-27 14:25:38.715,334,1632.454
2026-07-27 14:25:38.715,335,1637.341
2026-07-27 14:25:38.715,334,1632.454
2026-07-27 14:25:38.715,334,1632.454
2026-07-27 14:25:38.719,331,1617.791
2026-07-27 14:25:38.760,327,1598.24
2026-07-27 14:25:38.761,325,1588.465
2026-07-27 14:25:38.761,322,1573.803
2026-07-27 14:25:38.761,318,1554.252
2026-07-27 14:25:38.761,318,1554.252
2026-07-27 14:25:38.761,321,1568.915
2026-07-27 14:25:38.761,322,1573.803
2026-07-27 14:25:38.762,322,1573.803
2026-07-27 14:25:38.806,322,1573.803
2026-07-27 14:25:38.806,325,1588.465
2026-07-27 14:25:38.806,330,1612.903
2026-07-27 14:25:38.807,339,1656.891
2026-07-27 14:25:38.807,347,1695.992
2026-07-27 14:25:38.807,374,1827.957
2026-07-27 14:25:38.807,418,2043.011
2026-07-27 14:25:38.807,472,2306.94
2026-07-27 14:25:38.809,458,2238.514
2026-07-27 14:25:38.813,341,1666.667
2026-07-27 14:25:38.854,232,1133.92
2026-07-27 14:25:38.854,186,909.091
2026-07-27 14:25:38.855,230,1124.145
2026-07-27 14:25:38.855,294,1436.95
2026-07-27 14:25:38.855,326,1593.353
2026-07-27 14:25:38.855,334,1632.454
2026-07-27 14:25:38.855,344,1681.329
2026-07-27 14:25:38.855,348,1700.88
2026-07-27 14:25:38.859,344,1681.329
2026-07-27 14:25:38.900,342,1671.554
2026-07-27 14:25:38.900,344,1681.329
2026-07-27 14:25:38.900,348,1700.88
2026-07-27 14:25:38.900,346,1691.105
2026-07-27 14:25:38.900,348,1700.88
2026-07-27 14:25:38.901,349,1705.767
2026-07-27 14:25:38.901,352,1720.43
2026-07-27 14:25:38.901,353,1725.318
2026-07-27 14:25:38.946,352,1720.43
2026-07-27 14:25:38.946,358,1749.756
2026-07-27 14:25:38.946,363,1774.194
2026-07-27 14:25:38.950,361,1764.418
2026-07-27 14:25:38.950,359,1754.643
2026-07-27 14:25:38.950,364,1779.081
2026-07-27 14:25:38.950,364,1779.081
2026-07-27 14:25:38.950,366,1788.856
2026-07-27 14:25:38.951,369,1803.519
2026-07-27 14:25:38.953,375,1832.845
2026-07-27 14:25:38.993,377,1842.62
2026-07-27 14:25:38.993,380,1857.283
2026-07-27 14:25:38.993,384,1876.833
2026-07-27 14:25:38.993,394,1925.709
2026-07-27 14:25:38.993,401,1959.922
2026-07-27 14:25:38.993,404,1974.585
2026-07-27 14:25:38.993,408,1994.135
2026-07-27 14:25:38.995,419,2047.898
2026-07-27 14:25:39.039,435,2126.1
2026-07-27 14:25:39.039,444,2170.088
2026-07-27 14:25:39.040,447,2184.751
2026-07-27 14:25:39.040,453,2214.076
2026-07-27 14:25:39.040,459,2243.402
2026-07-27 14:25:39.040,462,2258.065
2026-07-27 14:25:39.040,461,2253.177
2026-07-27 14:25:39.041,455,2223.851
2026-07-27 14:25:39.044,445,2174.976
2026-07-27 14:25:39.047,430,2101.662
2026-07-27 14:25:39.087,415,2028.348
2026-07-27 14:25:39.087,398,1945.259
2026-07-27 14:25:39.087,378,1847.507
2026-07-27 14:25:39.087,364,1779.081
2026-07-27 14:25:39.087,356,1739.98
2026-07-27 14:25:39.087,349,1705.767
2026-07-27 14:25:39.087,340,1661.779
2026-07-27 14:25:39.088,334,1632.454
2026-07-27 14:25:39.132,336,1642.229
2026-07-27 14:25:39.132,339,1656.891
2026-07-27 14:25:39.132,332,1622.678
2026-07-27 14:25:39.133,328,1603.128
2026-07-27 14:25:39.133,327,1598.24
2026-07-27 14:25:39.133,328,1603.128
2026-07-27 14:25:39.133,329,1608.016
2026-07-27 14:25:39.133,327,1598.24
2026-07-27 14:25:39.135,325,1588.465
2026-07-27 14:25:39.177,324,1583.578
2026-07-27 14:25:39.177,321,1568.915
2026-07-27 14:25:39.177,318,1554.252
2026-07-27 14:25:39.177,320,1564.027
2026-07-27 14:25:39.177,317,1549.365
2026-07-27 14:25:39.178,312,1524.927
2026-07-27 14:25:39.178,307,1500.489
2026-07-27 14:25:39.178,307,1500.489
2026-07-27 14:25:39.182,311,1520.039
2026-07-27 14:25:39.224,321,1568.915
2026-07-27 14:25:39.225,326,1593.353
2026-07-27 14:25:39.225,327,1598.24
2026-07-27 14:25:39.225,325,1588.465
2026-07-27 14:25:39.225,322,1573.803
2026-07-27 14:25:39.225,318,1554.252
2026-07-27 14:25:39.226,318,1554.252
2026-07-27 14:25:39.226,321,1568.915
2026-07-27 14:25:39.229,320,1564.027
2026-07-27 14:25:39.271,319,1559.14
2026-07-27 14:25:39.271,320,1564.027
2026-07-27 14:25:39.272,320,1564.027
2026-07-27 14:25:39.272,320,1564.027
2026-07-27 14:25:39.272,317,1549.365
2026-07-27 14:25:39.272,320,1564.027
2026-07-27 14:25:39.272,325,1588.465
2026-07-27 14:25:39.272,327,1598.24
2026-07-27 14:25:39.275,324,1583.578
2026-07-27 14:25:39.317,321,1568.915
2026-07-27 14:25:39.317,317,1549.365
2026-07-27 14:25:39.317,317,1549.365
2026-07-27 14:25:39.318,318,1554.252
2026-07-27 14:25:39.318,323,1578.69
2026-07-27 14:25:39.318,321,1568.915
2026-07-27 14:25:39.318,318,1554.252
2026-07-27 14:25:39.318,315,1539.589
2026-07-27 14:25:39.322,315,1539.589
2026-07-27 14:25:39.364,314,1534.702
2026-07-27 14:25:39.364,314,1534.702
2026-07-27 14:25:39.365,319,1559.14
2026-07-27 14:25:39.365,325,1588.465
2026-07-27 14:25:39.365,326,1593.353
2026-07-27 14:25:39.365,322,1573.803
2026-07-27 14:25:39.365,318,1554.252
2026-07-27 14:25:39.365,320,1564.027
2026-07-27 14:25:39.369,324,1583.578
2026-07-27 14:25:39.410,327,1598.24
2026-07-27 14:25:39.410,329,1608.016
2026-07-27 14:25:39.411,328,1603.128
2026-07-27 14:25:39.411,327,1598.24
2026-07-27 14:25:39.411,327,1598.24
2026-07-27 14:25:39.411,331,1617.791
2026-07-27 14:25:39.411,332,1622.678
2026-07-27 14:25:39.411,333,1627.566
2026-07-27 14:25:39.441,332,1622.678
2026-07-27 14:25:39.441,333,1627.566
2026-07-27 14:25:39.442,335,1637.341
2026-07-27 14:25:39.442,335,1637.341
2026-07-27 14:25:39.442,334,1632.454
2026-07-27 14:25:39.446,336,1642.229
2026-07-27 14:25:39.447,336,1642.229
2026-07-27 14:25:39.490,338,1652.004
2026-07-27 14:25:39.490,336,1642.229
2026-07-27 14:25:39.490,334,1632.454
2026-07-27 14:25:39.490,333,1627.566
2026-07-27 14:25:39.490,338,1652.004
2026-07-27 14:25:39.491,339,1656.891
2026-07-27 14:25:39.491,338,1652.004
2026-07-27 14:25:39.491,340,1661.779
2026-07-27 14:25:39.495,342,1671.554
2026-07-27 14:25:39.499,340,1661.779
2026-07-27 14:25:39.536,337,1647.116
2026-07-27 14:25:39.536,336,1642.229
2026-07-27 14:25:39.537,336,1642.229
2026-07-27 14:25:39.537,333,1627.566
2026-07-27 14:25:39.537,332,1622.678
2026-07-27 14:25:39.537,333,1627.566
2026-07-27 14:25:39.539,332,1622.678
2026-07-27 14:25:39.542,329,1608.016
2026-07-27 14:25:39.568,331,1617.791
2026-07-27 14:25:39.568,329,1608.016
2026-07-27 14:25:39.568,326,1593.353
2026-07-27 14:25:39.568,326,1593.353
2026-07-27 14:25:39.569,334,1632.454
2026-07-27 14:25:39.572,332,1622.678
2026-07-27 14:25:39.614,330,1612.903
2026-07-27 14:25:39.614,332,1622.678
2026-07-27 14:25:39.615,334,1632.454
2026-07-27 14:25:39.615,332,1622.678
2026-07-27 14:25:39.615,329,1608.016
2026-07-27 14:25:39.615,331,1617.791
2026-07-27 14:25:39.615,335,1637.341
2026-07-27 14:25:39.615,334,1632.454
2026-07-27 14:25:39.619,330,1612.903
2026-07-27 14:25:39.645,329,1608.016
2026-07-27 14:25:39.646,330,1612.903
2026-07-27 14:25:39.646,329,1608.016
2026-07-27 14:25:39.646,328,1603.128
2026-07-27 14:25:39.646,329,1608.016
2026-07-27 14:25:39.650,329,1608.016
2026-07-27 14:25:39.694,327,1598.24
2026-07-27 14:25:39.694,327,1598.24
2026-07-27 14:25:39.694,335,1637.341
2026-07-27 14:25:39.695,338,1652.004
2026-07-27 14:25:39.695,339,1656.891
2026-07-27 14:25:39.695,340,1661.779
2026-07-27 14:25:39.695,340,1661.779
2026-07-27 14:25:39.695,334,1632.454
2026-07-27 14:25:39.723,327,1598.24
2026-07-27 14:25:39.724,323,1578.69
2026-07-27 14:25:39.724,324,1583.578
2026-07-27 14:25:39.724,324,1583.578
2026-07-27 14:25:39.724,323,1578.69
2026-07-27 14:25:39.724,321,1568.915
2026-07-27 14:25:39.728,321,1568.915
2026-07-27 14:25:39.754,323,1578.69
2026-07-27 14:25:39.754,325,1588.465
2026-07-27 14:25:39.754,327,1598.24
2026-07-27 14:25:39.754,333,1627.566
2026-07-27 14:25:39.755,346,1691.105
2026-07-27 14:25:39.759,359,1754.643
2026-07-27 14:25:39.785,390,1906.158
2026-07-27 14:25:39.785,446,2179.863
2026-07-27 14:25:39.786,498,2434.018
2026-07-27 14:25:39.786,448,2189.638
2026-07-27 14:25:39.787,301,1471.163
2026-07-27 14:25:39.790,198,967.742
2026-07-27 14:25:39.833,175,855.327
2026-07-27 14:25:39.833,238,1163.245
2026-07-27 14:25:39.834,294,1436.95
2026-07-27 14:25:39.834,319,1559.14
2026-07-27 14:25:39.834,323,1578.69
2026-07-27 14:25:39.834,328,1603.128
2026-07-27 14:25:39.834,331,1617.791
2026-07-27 14:25:39.835,332,1622.678
2026-07-27 14:25:39.865,325,1588.465
2026-07-27 14:25:39.865,322,1573.803
2026-07-27 14:25:39.865,324,1583.578
2026-07-27 14:25:39.865,331,1617.791
2026-07-27 14:25:39.865,327,1598.24
2026-07-27 14:25:39.865,326,1593.353
2026-07-27 14:25:39.868,328,1603.128
2026-07-27 14:25:39.895,329,1608.016
2026-07-27 14:25:39.895,326,1593.353
2026-07-27 14:25:39.896,326,1593.353
2026-07-27 14:25:39.896,329,1608.016
2026-07-27 14:25:39.896,334,1632.454
2026-07-27 14:25:39.901,332,1622.678
2026-07-27 14:25:39.906,331,1617.791
2026-07-27 14:25:39.941,332,1622.678
2026-07-27 14:25:39.942,336,1642.229
2026-07-27 14:25:39.942,336,1642.229
2026-07-27 14:25:39.942,338,1652.004
2026-07-27 14:25:39.942,343,1676.442
2026-07-27 14:25:39.942,345,1686.217
2026-07-27 14:25:39.942,348,1700.88
2026-07-27 14:25:39.947,351,1715.543
2026-07-27 14:25:39.973,360,1759.531
2026-07-27 14:25:39.973,368,1798.631
2026-07-27 14:25:39.976,376,1837.732
2026-07-27 14:25:39.977,382,1867.058
2026-07-27 14:25:39.977,393,1920.821
2026-07-27 14:25:39.978,402,1964.809
2026-07-27 14:25:40.004,407,1989.247
2026-07-27 14:25:40.005,411,2008.798
2026-07-27 14:25:40.005,416,2033.236
2026-07-27 14:25:40.006,416,2033.236
2026-07-27 14:25:40.012,411,2008.798
2026-07-27 14:25:40.012,401,1959.922
2026-07-27 14:25:40.014,389,1901.271
2026-07-27 14:25:40.050,373,1823.069
2026-07-27 14:25:40.050,354,1730.205
2026-07-27 14:25:40.050,336,1642.229
2026-07-27 14:25:40.050,320,1564.027
2026-07-27 14:25:40.050,308,1505.376
2026-07-27 14:25:40.050,298,1456.5
2026-07-27 14:25:40.051,289,1412.512
2026-07-27 14:25:40.081,283,1383.187
2026-07-27 14:25:40.081,280,1368.524
2026-07-27 14:25:40.082,278,1358.749
2026-07-27 14:25:40.082,275,1344.086
2026-07-27 14:25:40.082,279,1363.636
2026-07-27 14:25:40.082,278,1358.749
2026-07-27 14:25:40.113,277,1353.861
2026-07-27 14:25:40.113,276,1348.974
2026-07-27 14:25:40.113,279,1363.636
2026-07-27 14:25:40.113,280,1368.524
2026-07-27 14:25:40.113,282,1378.299
2026-07-27 14:25:40.119,282,1378.299
2026-07-27 14:25:40.119,286,1397.849
2026-07-27 14:25:40.123,285,1392.962
2026-07-27 14:25:40.159,285,1392.962
2026-07-27 14:25:40.159,287,1402.737
2026-07-27 14:25:40.159,290,1417.4
2026-07-27 14:25:40.160,290,1417.4
2026-07-27 14:25:40.160,289,1412.512
2026-07-27 14:25:40.160,290,1417.4
2026-07-27 14:25:40.160,293,1432.063
2026-07-27 14:25:40.189,292,1427.175
2026-07-27 14:25:40.190,291,1422.287
2026-07-27 14:25:40.190,292,1427.175
2026-07-27 14:25:40.190,294,1436.95
2026-07-27 14:25:40.190,294,1436.95
2026-07-27 14:25:40.191,293,1432.063
2026-07-27 14:25:40.235,296,1446.725
2026-07-27 14:25:40.235,297,1451.613
2026-07-27 14:25:40.235,296,1446.725
2026-07-27 14:25:40.236,294,1436.95
2026-07-27 14:25:40.236,297,1451.613
2026-07-27 14:25:40.236,297,1451.613
2026-07-27 14:25:40.236,298,1456.5
2026-07-27 14:25:40.236,298,1456.5
2026-07-27 14:25:40.238,300,1466.276
2026-07-27 14:25:40.282,298,1456.5
2026-07-27 14:25:40.283,298,1456.5
2026-07-27 14:25:40.283,298,1456.5
2026-07-27 14:25:40.283,299,1461.388
2026-07-27 14:25:40.283,299,1461.388
2026-07-27 14:25:40.283,298,1456.5
2026-07-27 14:25:40.283,297,1451.613
2026-07-27 14:25:40.283,298,1456.5
2026-07-27 14:25:40.284,298,1456.5
2026-07-27 14:25:40.329,301,1471.163
2026-07-27 14:25:40.329,300,1466.276
2026-07-27 14:25:40.329,299,1461.388
2026-07-27 14:25:40.329,300,1466.276
2026-07-27 14:25:40.329,301,1471.163
2026-07-27 14:25:40.330,301,1471.163
2026-07-27 14:25:40.330,301,1471.163
2026-07-27 14:25:40.330,300,1466.276
2026-07-27 14:25:40.331,302,1476.051
2026-07-27 14:25:40.376,302,1476.051
2026-07-27 14:25:40.376,306,1495.601
2026-07-27 14:25:40.376,305,1490.714
2026-07-27 14:25:40.376,304,1485.826
2026-07-27 14:25:40.377,304,1485.826
2026-07-27 14:25:40.377,307,1500.489
2026-07-27 14:25:40.377,306,1495.601
2026-07-27 14:25:40.377,305,1490.714
2026-07-27 14:25:40.378,306,1495.601
2026-07-27 14:25:40.423,310,1515.152
2026-07-27 14:25:40.423,309,1510.264
2026-07-27 14:25:40.423,306,1495.601
2026-07-27 14:25:40.423,308,1505.376
2026-07-27 14:25:40.423,310,1515.152
2026-07-27 14:25:40.423,311,1520.039
2026-07-27 14:25:40.424,311,1520.039
2026-07-27 14:25:40.424,312,1524.927
2026-07-27 14:25:40.425,315,1539.589
2026-07-27 14:25:40.470,315,1539.589
2026-07-27 14:25:40.471,312,1524.927
2026-07-27 14:25:40.471,313,1529.814
2026-07-27 14:25:40.471,316,1544.477
2026-07-27 14:25:40.472,316,1544.477
2026-07-27 14:25:40.472,316,1544.477
2026-07-27 14:25:40.472,319,1559.14
2026-07-27 14:25:40.472,321,1568.915
2026-07-27 14:25:40.473,320,1564.027
2026-07-27 14:25:40.517,318,1554.252
2026-07-27 14:25:40.524,319,1559.14
2026-07-27 14:25:40.524,320,1564.027
2026-07-27 14:25:40.525,318,1554.252
2026-07-27 14:25:40.525,318,1554.252
2026-07-27 14:25:40.525,318,1554.252
2026-07-27 14:25:40.525,318,1554.252
2026-07-27 14:25:40.525,318,1554.252
2026-07-27 14:25:40.525,317,1549.365
2026-07-27 14:25:40.526,317,1549.365
2026-07-27 14:25:40.529,318,1554.252
2026-07-27 14:25:40.578,317,1549.365
2026-07-27 14:25:40.579,315,1539.589
2026-07-27 14:25:40.579,317,1549.365
2026-07-27 14:25:40.579,317,1549.365
2026-07-27 14:25:40.579,318,1554.252
2026-07-27 14:25:40.579,318,1554.252
2026-07-27 14:25:40.580,320,1564.027
2026-07-27 14:25:40.580,320,1564.027
2026-07-27 14:25:40.580,318,1554.252
2026-07-27 14:25:40.581,318,1554.252
2026-07-27 14:25:40.625,323,1578.69
2026-07-27 14:25:40.625,320,1564.027
2026-07-27 14:25:40.625,320,1564.027
2026-07-27 14:25:40.625,322,1573.803
2026-07-27 14:25:40.625,325,1588.465
2026-07-27 14:25:40.626,325,1588.465
2026-07-27 14:25:40.626,328,1603.128
2026-07-27 14:25:40.626,330,1612.903
2026-07-27 14:25:40.630,334,1632.454
2026-07-27 14:25:40.633,334,1632.454
2026-07-27 14:25:40.672,330,1612.903
2026-07-27 14:25:40.672,328,1603.128
2026-07-27 14:25:40.672,328,1603.128
2026-07-27 14:25:40.672,325,1588.465
2026-07-27 14:25:40.672,322,1573.803
2026-07-27 14:25:40.672,324,1583.578
2026-07-27 14:25:40.672,328,1603.128
2026-07-27 14:25:40.675,325,1588.465
2026-07-27 14:25:40.718,323,1578.69
2026-07-27 14:25:40.719,325,1588.465
2026-07-27 14:25:40.719,332,1622.678
2026-07-27 14:25:40.719,335,1637.341
2026-07-27 14:25:40.719,342,1671.554
2026-07-27 14:25:40.719,356,1739.98
2026-07-27 14:25:40.720,380,1857.283
2026-07-27 14:25:40.720,426,2082.111
2026-07-27 14:25:40.764,486,2375.367
2026-07-27 14:25:40.765,510,2492.669
2026-07-27 14:25:40.765,392,1915.934
2026-07-27 14:25:40.765,243,1187.683
2026-07-27 14:25:40.765,174,850.44
2026-07-27 14:25:40.765,221,1080.156
2026-07-27 14:25:40.766,293,1432.063
2026-07-27 14:25:40.766,324,1583.578
2026-07-27 14:25:40.766,333,1627.566
2026-07-27 14:25:40.811,343,1676.442
2026-07-27 14:25:40.811,353,1725.318
2026-07-27 14:25:40.812,349,1705.767
2026-07-27 14:25:40.812,343,1676.442
2026-07-27 14:25:40.812,342,1671.554
2026-07-27 14:25:40.812,345,1686.217
2026-07-27 14:25:40.813,346,1691.105
2026-07-27 14:25:40.813,346,1691.105
2026-07-27 14:25:40.813,347,1695.992
2026-07-27 14:25:40.815,349,1705.767
2026-07-27 14:25:40.859,350,1710.655
2026-07-27 14:25:40.859,350,1710.655
2026-07-27 14:25:40.860,351,1715.543
2026-07-27 14:25:40.860,353,1725.318
2026-07-27 14:25:40.860,354,1730.205
2026-07-27 14:25:40.860,356,1739.98
2026-07-27 14:25:40.860,358,1749.756
2026-07-27 14:25:40.860,358,1749.756
2026-07-27 14:25:40.862,358,1749.756
2026-07-27 14:25:40.904,358,1749.756
2026-07-27 14:25:40.904,364,1779.081
2026-07-27 14:25:40.904,364,1779.081
2026-07-27 14:25:40.905,364,1779.081
2026-07-27 14:25:40.905,367,1793.744
2026-07-27 14:25:40.905,374,1827.957
2026-07-27 14:25:40.905,378,1847.507
2026-07-27 14:25:40.905,384,1876.833
2026-07-27 14:25:40.909,392,1915.934
2026-07-27 14:25:40.950,400,1955.034
2026-07-27 14:25:40.950,406,1984.36
2026-07-27 14:25:40.950,410,2003.91
2026-07-27 14:25:40.950,422,2062.561
2026-07-27 14:25:40.951,429,2096.774
2026-07-27 14:25:40.951,432,2111.437
2026-07-27 14:25:40.951,430,2101.662
2026-07-27 14:25:40.951,431,2106.549
2026-07-27 14:25:40.996,428,2091.887
2026-07-27 14:25:40.997,414,2023.46
2026-07-27 14:25:40.997,396,1935.484
2026-07-27 14:25:40.997,380,1857.283
2026-07-27 14:25:40.998,364,1779.081
2026-07-27 14:25:40.998,347,1695.992
2026-07-27 14:25:40.998,332,1622.678
2026-07-27 14:25:40.998,322,1573.803
2026-07-27 14:25:40.999,312,1524.927
2026-07-27 14:25:41.004,305,1490.714
2026-07-27 14:25:41.007,299,1461.388
2026-07-27 14:25:41.043,298,1456.5
2026-07-27 14:25:41.043,294,1436.95
2026-07-27 14:25:41.043,292,1427.175
2026-07-27 14:25:41.044,290,1417.4
2026-07-27 14:25:41.044,289,1412.512
2026-07-27 14:25:41.044,288,1407.625
2026-07-27 14:25:41.044,288,1407.625
2026-07-27 14:25:41.090,288,1407.625
2026-07-27 14:25:41.090,290,1417.4
2026-07-27 14:25:41.090,290,1417.4
2026-07-27 14:25:41.090,289,1412.512
2026-07-27 14:25:41.090,286,1397.849
2026-07-27 14:25:41.091,289,1412.512
2026-07-27 14:25:41.091,290,1417.4
2026-07-27 14:25:41.091,291,1422.287
2026-07-27 14:25:41.091,291,1422.287
2026-07-27 14:25:41.137,291,1422.287
2026-07-27 14:25:41.137,292,1427.175
2026-07-27 14:25:41.137,293,1432.063
2026-07-27 14:25:41.137,293,1432.063
2026-07-27 14:25:41.137,295,1441.838
2026-07-27 14:25:41.137,297,1451.613
2026-07-27 14:25:41.138,297,1451.613
2026-07-27 14:25:41.138,298,1456.5
2026-07-27 14:25:41.184,300,1466.276
2026-07-27 14:25:41.184,301,1471.163
2026-07-27 14:25:41.184,298,1456.5
2026-07-27 14:25:41.184,298,1456.5
2026-07-27 14:25:41.184,302,1476.051
2026-07-27 14:25:41.184,302,1476.051
2026-07-27 14:25:41.184,303,1480.938
2026-07-27 14:25:41.184,303,1480.938
2026-07-27 14:25:41.184,304,1485.826
2026-07-27 14:25:41.186,305,1490.714
2026-07-27 14:25:41.190,304,1485.826
2026-07-27 14:25:41.230,305,1490.714
2026-07-27 14:25:41.232,309,1510.264
2026-07-27 14:25:41.232,309,1510.264
2026-07-27 14:25:41.232,308,1505.376
2026-07-27 14:25:41.232,310,1515.152
2026-07-27 14:25:41.232,308,1505.376
2026-07-27 14:25:41.233,308,1505.376
2026-07-27 14:25:41.236,308,1505.376
2026-07-27 14:25:41.236,310,1515.152
2026-07-27 14:25:41.277,310,1515.152
2026-07-27 14:25:41.277,309,1510.264
2026-07-27 14:25:41.278,308,1505.376
2026-07-27 14:25:41.278,310,1515.152
2026-07-27 14:25:41.278,310,1515.152
2026-07-27 14:25:41.278,311,1520.039
2026-07-27 14:25:41.278,310,1515.152
2026-07-27 14:25:41.278,311,1520.039
2026-07-27 14:25:41.324,312,1524.927
2026-07-27 14:25:41.324,312,1524.927
2026-07-27 14:25:41.324,312,1524.927
2026-07-27 14:25:41.324,312,1524.927
2026-07-27 14:25:41.324,311,1520.039
2026-07-27 14:25:41.324,312,1524.927
2026-07-27 14:25:41.325,312,1524.927
2026-07-27 14:25:41.325,313,1529.814
2026-07-27 14:25:41.325,313,1529.814
2026-07-27 14:25:41.369,314,1534.702
2026-07-27 14:25:41.370,315,1539.589
2026-07-27 14:25:41.370,313,1529.814
2026-07-27 14:25:41.370,313,1529.814
2026-07-27 14:25:41.370,314,1534.702
2026-07-27 14:25:41.370,316,1544.477
2026-07-27 14:25:41.370,317,1549.365
2026-07-27 14:25:41.370,318,1554.252
2026-07-27 14:25:41.371,317,1549.365
2026-07-27 14:25:41.416,316,1544.477
2026-07-27 14:25:41.417,319,1559.14
2026-07-27 14:25:41.417,318,1554.252
2026-07-27 14:25:41.417,317,1549.365
2026-07-27 14:25:41.417,320,1564.027
2026-07-27 14:25:41.417,322,1573.803
2026-07-27 14:25:41.417,321,1568.915
2026-07-27 14:25:41.417,320,1564.027
2026-07-27 14:25:41.418,324,1583.578
2026-07-27 14:25:41.463,326,1593.353
2026-07-27 14:25:41.463,324,1583.578
2026-07-27 14:25:41.463,323,1578.69
2026-07-27 14:25:41.464,326,1593.353
2026-07-27 14:25:41.464,329,1608.016
2026-07-27 14:25:41.464,329,1608.016
2026-07-27 14:25:41.464,327,1598.24
2026-07-27 14:25:41.464,329,1608.016
2026-07-27 14:25:41.465,330,1612.903
2026-07-27 14:25:41.510,330,1612.903
2026-07-27 14:25:41.511,330,1612.903
2026-07-27 14:25:41.511,334,1632.454
2026-07-27 14:25:41.511,335,1637.341
2026-07-27 14:25:41.511,335,1637.341
2026-07-27 14:25:41.511,336,1642.229
2026-07-27 14:25:41.511,339,1656.891
2026-07-27 14:25:41.511,338,1652.004
2026-07-27 14:25:41.512,337,1647.116
2026-07-27 14:25:41.557,337,1647.116
2026-07-27 14:25:41.560,337,1647.116
2026-07-27 14:25:41.560,332,1622.678
2026-07-27 14:25:41.560,329,1608.016
2026-07-27 14:25:41.561,328,1603.128
2026-07-27 14:25:41.561,329,1608.016
2026-07-27 14:25:41.561,329,1608.016
2026-07-27 14:25:41.561,329,1608.016
2026-07-27 14:25:41.561,326,1593.353
2026-07-27 14:25:41.564,329,1608.016
2026-07-27 14:25:41.604,331,1617.791
2026-07-27 14:25:41.604,334,1632.454
2026-07-27 14:25:41.604,337,1647.116
2026-07-27 14:25:41.604,346,1691.105
2026-07-27 14:25:41.605,357,1744.868
2026-07-27 14:25:41.605,377,1842.62
2026-07-27 14:25:41.605,414,2023.46
2026-07-27 14:25:41.605,464,2267.84
2026-07-27 14:25:41.652,502,2453.568
2026-07-27 14:25:41.652,417,2038.123
2026-07-27 14:25:41.652,263,1285.435
2026-07-27 14:25:41.652,179,874.878
2026-07-27 14:25:41.652,213,1041.056
2026-07-27 14:25:41.652,284,1388.074
2026-07-27 14:25:41.652,314,1534.702
2026-07-27 14:25:41.653,326,1593.353
2026-07-27 14:25:41.658,334,1632.454
2026-07-27 14:25:41.658,342,1671.554
2026-07-27 14:25:41.696,346,1691.105
2026-07-27 14:25:41.696,347,1695.992
2026-07-27 14:25:41.696,342,1671.554
2026-07-27 14:25:41.696,340,1661.779
2026-07-27 14:25:41.697,344,1681.329
2026-07-27 14:25:41.697,346,1691.105
2026-07-27 14:25:41.697,342,1671.554
2026-07-27 14:25:41.699,340,1661.779
2026-07-27 14:25:41.744,343,1676.442
2026-07-27 14:25:41.745,347,1695.992
2026-07-27 14:25:41.745,344,1681.329
2026-07-27 14:25:41.746,343,1676.442
2026-07-27 14:25:41.746,344,1681.329
2026-07-27 14:25:41.746,343,1676.442
2026-07-27 14:25:41.746,343,1676.442
2026-07-27 14:25:41.747,343,1676.442
2026-07-27 14:25:41.750,346,1691.105
2026-07-27 14:25:41.752,349,1705.767
2026-07-27 14:25:41.756,349,1705.767
2026-07-27 14:25:41.789,347,1695.992
2026-07-27 14:25:41.789,351,1715.543
2026-07-27 14:25:41.790,353,1725.318
2026-07-27 14:25:41.790,356,1739.98
2026-07-27 14:25:41.790,359,1754.643
2026-07-27 14:25:41.790,365,1783.969
2026-07-27 14:25:41.793,372,1818.182
2026-07-27 14:25:41.836,379,1852.395
2026-07-27 14:25:41.837,384,1876.833
2026-07-27 14:25:41.837,393,1920.821
2026-07-27 14:25:41.837,400,1955.034
2026-07-27 14:25:41.837,404,1974.585
2026-07-27 14:25:41.837,405,1979.472
2026-07-27 14:25:41.837,409,1999.022
2026-07-27 14:25:41.838,408,1994.135
2026-07-27 14:25:41.839,404,1974.585
2026-07-27 14:25:41.884,392,1915.934
2026-07-27 14:25:41.884,379,1852.395
2026-07-27 14:25:41.884,363,1774.194
2026-07-27 14:25:41.885,347,1695.992
2026-07-27 14:25:41.885,333,1627.566
2026-07-27 14:25:41.885,321,1568.915
2026-07-27 14:25:41.885,309,1510.264
2026-07-27 14:25:41.885,300,1466.276
2026-07-27 14:25:41.886,294,1436.95
2026-07-27 14:25:41.930,291,1422.287
2026-07-27 14:25:41.931,289,1412.512
2026-07-27 14:25:41.931,286,1397.849
2026-07-27 14:25:41.931,285,1392.962
2026-07-27 14:25:41.931,287,1402.737
2026-07-27 14:25:41.931,286,1397.849
2026-07-27 14:25:41.931,288,1407.625
2026-07-27 14:25:41.931,288,1407.625
2026-07-27 14:25:41.933,290,1417.4
2026-07-27 14:25:41.977,290,1417.4
2026-07-27 14:25:41.977,289,1412.512
2026-07-27 14:25:41.977,290,1417.4
2026-07-27 14:25:41.977,294,1436.95
2026-07-27 14:25:41.977,293,1432.063
2026-07-27 14:25:41.977,292,1427.175
2026-07-27 14:25:41.978,295,1441.838
2026-07-27 14:25:41.978,298,1456.5
2026-07-27 14:25:41.980,295,1441.838
2026-07-27 14:25:42.025,295,1441.838
2026-07-27 14:25:42.025,296,1446.725
2026-07-27 14:25:42.025,298,1456.5
2026-07-27 14:25:42.025,299,1461.388
2026-07-27 14:25:42.026,298,1456.5
2026-07-27 14:25:42.026,299,1461.388
2026-07-27 14:25:42.026,301,1471.163
2026-07-27 14:25:42.026,303,1480.938
2026-07-27 14:25:42.027,303,1480.938
2026-07-27 14:25:42.071,303,1480.938
2026-07-27 14:25:42.071,304,1485.826
2026-07-27 14:25:42.075,305,1490.714
2026-07-27 14:25:42.075,306,1495.601
2026-07-27 14:25:42.075,307,1500.489
2026-07-27 14:25:42.075,307,1500.489
2026-07-27 14:25:42.075,307,1500.489
2026-07-27 14:25:42.075,307,1500.489
2026-07-27 14:25:42.075,309,1510.264
2026-07-27 14:25:42.118,310,1515.152
2026-07-27 14:25:42.118,311,1520.039
2026-07-27 14:25:42.118,309,1510.264
2026-07-27 14:25:42.119,310,1515.152
2026-07-27 14:25:42.119,311,1520.039
2026-07-27 14:25:42.119,311,1520.039
2026-07-27 14:25:42.119,311,1520.039
2026-07-27 14:25:42.119,311,1520.039
2026-07-27 14:25:42.120,312,1524.927
2026-07-27 14:25:42.165,312,1524.927
2026-07-27 14:25:42.165,311,1520.039
2026-07-27 14:25:42.165,313,1529.814
2026-07-27 14:25:42.165,315,1539.589
2026-07-27 14:25:42.165,316,1544.477
2026-07-27 14:25:42.166,315,1539.589
2026-07-27 14:25:42.166,317,1549.365
2026-07-27 14:25:42.166,316,1544.477
2026-07-27 14:25:42.196,316,1544.477
2026-07-27 14:25:42.196,316,1544.477
2026-07-27 14:25:42.196,319,1559.14
2026-07-27 14:25:42.197,318,1554.252
2026-07-27 14:25:42.197,320,1564.027
2026-07-27 14:25:42.197,320,1564.027
2026-07-27 14:25:42.198,323,1578.69
2026-07-27 14:25:42.243,322,1573.803
2026-07-27 14:25:42.243,320,1564.027
2026-07-27 14:25:42.243,321,1568.915
2026-07-27 14:25:42.244,326,1593.353
2026-07-27 14:25:42.244,323,1578.69
2026-07-27 14:25:42.244,320,1564.027
2026-07-27 14:25:42.244,322,1573.803
2026-07-27 14:25:42.244,323,1578.69
2026-07-27 14:25:42.245,322,1573.803
2026-07-27 14:25:42.290,323,1578.69
2026-07-27 14:25:42.290,324,1583.578
2026-07-27 14:25:42.290,324,1583.578
2026-07-27 14:25:42.291,324,1583.578
2026-07-27 14:25:42.291,324,1583.578
2026-07-27 14:25:42.291,326,1593.353
2026-07-27 14:25:42.291,328,1603.128
2026-07-27 14:25:42.291,328,1603.128
2026-07-27 14:25:42.292,326,1593.353
2026-07-27 14:25:42.336,327,1598.24
2026-07-27 14:25:42.336,330,1612.903
2026-07-27 14:25:42.337,329,1608.016
2026-07-27 14:25:42.337,328,1603.128
2026-07-27 14:25:42.337,331,1617.791
2026-07-27 14:25:42.337,333,1627.566
2026-07-27 14:25:42.337,333,1627.566
2026-07-27 14:25:42.337,334,1632.454
2026-07-27 14:25:42.339,338,1652.004
2026-07-27 14:25:42.382,339,1656.891
2026-07-27 14:25:42.382,338,1652.004
2026-07-27 14:25:42.383,335,1637.341
2026-07-27 14:25:42.383,332,1622.678
2026-07-27 14:25:42.383,331,1617.791
2026-07-27 14:25:42.383,330,1612.903
2026-07-27 14:25:42.383,328,1603.128
2026-07-27 14:25:42.383,327,1598.24
2026-07-27 14:25:42.385,326,1593.353
2026-07-27 14:25:42.429,327,1598.24
2026-07-27 14:25:42.429,327,1598.24
2026-07-27 14:25:42.429,329,1608.016
2026-07-27 14:25:42.430,332,1622.678
2026-07-27 14:25:42.430,335,1637.341
2026-07-27 14:25:42.430,341,1666.667
2026-07-27 14:25:42.430,355,1735.093
2026-07-27 14:25:42.430,365,1783.969
2026-07-27 14:25:42.433,396,1935.484
2026-07-27 14:25:42.475,443,2165.2
2026-07-27 14:25:42.475,482,2355.816
2026-07-27 14:25:42.475,425,2077.224
2026-07-27 14:25:42.475,298,1456.5
2026-07-27 14:25:42.475,216,1055.718
2026-07-27 14:25:42.476,207,1011.73
2026-07-27 14:25:42.476,264,1290.323
2026-07-27 14:25:42.476,312,1524.927
2026-07-27 14:25:42.479,334,1632.454
2026-07-27 14:25:42.521,344,1681.329
2026-07-27 14:25:42.521,348,1700.88
2026-07-27 14:25:42.521,347,1695.992
2026-07-27 14:25:42.521,345,1686.217
2026-07-27 14:25:42.522,344,1681.329
2026-07-27 14:25:42.522,344,1681.329
2026-07-27 14:25:42.522,345,1686.217
2026-07-27 14:25:42.522,348,1700.88
2026-07-27 14:25:42.527,350,1710.655
2026-07-27 14:25:42.568,350,1710.655
2026-07-27 14:25:42.568,349,1705.767
2026-07-27 14:25:42.568,349,1705.767
2026-07-27 14:25:42.568,351,1715.543
2026-07-27 14:25:42.569,351,1715.543
2026-07-27 14:25:42.569,351,1715.543
2026-07-27 14:25:42.574,353,1725.318
2026-07-27 14:25:42.576,353,1725.318
2026-07-27 14:25:42.576,353,1725.318
2026-07-27 14:25:42.578,351,1715.543
2026-07-27 14:25:42.614,353,1725.318
2026-07-27 14:25:42.614,354,1730.205
2026-07-27 14:25:42.614,356,1739.98
2026-07-27 14:25:42.614,357,1744.868
2026-07-27 14:25:42.614,360,1759.531
2026-07-27 14:25:42.615,362,1769.306
2026-07-27 14:25:42.615,366,1788.856
2026-07-27 14:25:42.645,368,1798.631
2026-07-27 14:25:42.645,377,1842.62
2026-07-27 14:25:42.646,386,1886.608
2026-07-27 14:25:42.646,391,1911.046
2026-07-27 14:25:42.646,397,1940.371
2026-07-27 14:25:42.646,407,1989.247
2026-07-27 14:25:42.676,412,2013.685
2026-07-27 14:25:42.676,418,2043.011
2026-07-27 14:25:42.676,421,2057.674
2026-07-27 14:25:42.676,421,2057.674
2026-07-27 14:25:42.676,417,2038.123
2026-07-27 14:25:42.678,410,2003.91
2026-07-27 14:25:42.682,397,1940.371
2026-07-27 14:25:42.705,382,1867.058
2026-07-27 14:25:42.706,363,1774.194
2026-07-27 14:25:42.706,347,1695.992
2026-07-27 14:25:42.706,333,1627.566
2026-07-27 14:25:42.708,327,1598.24
2026-07-27 14:25:42.737,317,1549.365
2026-07-27 14:25:42.737,308,1505.376
2026-07-27 14:25:42.737,305,1490.714
2026-07-27 14:25:42.737,305,1490.714
2026-07-27 14:25:42.738,301,1471.163
2026-07-27 14:25:42.739,297,1451.613
2026-07-27 14:25:42.769,297,1451.613
2026-07-27 14:25:42.769,299,1461.388
2026-07-27 14:25:42.769,299,1461.388
2026-07-27 14:25:42.769,298,1456.5
2026-07-27 14:25:42.769,301,1471.163
2026-07-27 14:25:42.773,303,1480.938
2026-07-27 14:25:42.776,302,1476.051
2026-07-27 14:25:42.816,301,1471.163
2026-07-27 14:25:42.817,304,1485.826
2026-07-27 14:25:42.817,307,1500.489
2026-07-27 14:25:42.817,305,1490.714
2026-07-27 14:25:42.817,303,1480.938
2026-07-27 14:25:42.817,305,1490.714
2026-07-27 14:25:42.817,306,1495.601
2026-07-27 14:25:42.817,305,1490.714
2026-07-27 14:25:42.848,303,1480.938
2026-07-27 14:25:42.848,306,1495.601
2026-07-27 14:25:42.848,308,1505.376
2026-07-27 14:25:42.848,307,1500.489
2026-07-27 14:25:42.848,306,1495.601
2026-07-27 14:25:42.849,307,1500.489
2026-07-27 14:25:42.879,308,1505.376
2026-07-27 14:25:42.879,309,1510.264
2026-07-27 14:25:42.879,309,1510.264
2026-07-27 14:25:42.879,309,1510.264
2026-07-27 14:25:42.879,311,1520.039
2026-07-27 14:25:42.880,311,1520.039
2026-07-27 14:25:42.909,311,1520.039
2026-07-27 14:25:42.909,312,1524.927
2026-07-27 14:25:42.910,311,1520.039
2026-07-27 14:25:42.910,312,1524.927
2026-07-27 14:25:42.910,314,1534.702
2026-07-27 14:25:42.911,315,1539.589
2026-07-27 14:25:42.940,316,1544.477
2026-07-27 14:25:42.940,316,1544.477
2026-07-27 14:25:42.941,317,1549.365
2026-07-27 14:25:42.941,317,1549.365
2026-07-27 14:25:42.941,317,1549.365
2026-07-27 14:25:42.942,316,1544.477
2026-07-27 14:25:42.971,316,1544.477
2026-07-27 14:25:42.973,318,1554.252
2026-07-27 14:25:42.973,317,1549.365
2026-07-27 14:25:42.973,316,1544.477
2026-07-27 14:25:42.973,317,1549.365
2026-07-27 14:25:42.977,318,1554.252
2026-07-27 14:25:42.980,316,1544.477
2026-07-27 14:25:42.984,315,1539.589
2026-07-27 14:25:43.033,318,1554.252
2026-07-27 14:25:43.033,320,1564.027
2026-07-27 14:25:43.033,317,1549.365
2026-07-27 14:25:43.033,315,1539.589
2026-07-27 14:25:43.033,316,1544.477
2026-07-27 14:25:43.034,316,1544.477
2026-07-27 14:25:43.034,314,1534.702
2026-07-27 14:25:43.034,313,1529.814
2026-07-27 14:25:43.034,316,1544.477
2026-07-27 14:25:43.036,317,1549.365
2026-07-27 14:25:43.080,315,1539.589
2026-07-27 14:25:43.081,313,1529.814
2026-07-27 14:25:43.081,316,1544.477
2026-07-27 14:25:43.081,318,1554.252
2026-07-27 14:25:43.081,316,1544.477
2026-07-27 14:25:43.081,316,1544.477
2026-07-27 14:25:43.081,319,1559.14
2026-07-27 14:25:43.082,319,1559.14
2026-07-27 14:25:43.085,319,1559.14
2026-07-27 14:25:43.088,319,1559.14
2026-07-27 14:25:43.141,321,1568.915
2026-07-27 14:25:43.141,323,1578.69
2026-07-27 14:25:43.141,324,1583.578
2026-07-27 14:25:43.141,322,1573.803
2026-07-27 14:25:43.141,324,1583.578
2026-07-27 14:25:43.141,325,1588.465
2026-07-27 14:25:43.141,325,1588.465
2026-07-27 14:25:43.141,323,1578.69
2026-07-27 14:25:43.142,326,1593.353
2026-07-27 14:25:43.142,328,1603.128
2026-07-27 14:25:43.219,325,1588.465
2026-07-27 14:25:43.219,325,1588.465
2026-07-27 14:25:43.219,326,1593.353
2026-07-27 14:25:43.219,326,1593.353
2026-07-27 14:25:43.219,326,1593.353
2026-07-27 14:25:43.220,327,1598.24
2026-07-27 14:25:43.220,330,1612.903
2026-07-27 14:25:43.220,329,1608.016
2026-07-27 14:25:43.220,330,1612.903
2026-07-27 14:25:43.220,332,1622.678
2026-07-27 14:25:43.220,335,1637.341
2026-07-27 14:25:43.220,334,1632.454
2026-07-27 14:25:43.220,333,1627.566
2026-07-27 14:25:43.220,331,1617.791
2026-07-27 14:25:43.221,329,1608.016
2026-07-27 14:25:43.223,326,1593.353
2026-07-27 14:25:43.267,323,1578.69
2026-07-27 14:25:43.267,321,1568.915
2026-07-27 14:25:43.267,323,1578.69
2026-07-27 14:25:43.267,321,1568.915
2026-07-27 14:25:43.267,320,1564.027
2026-07-27 14:25:43.267,322,1573.803
2026-07-27 14:25:43.267,324,1583.578
2026-07-27 14:25:43.268,326,1593.353
2026-07-27 14:25:43.270,328,1603.128
2026-07-27 14:25:43.314,336,1642.229
2026-07-27 14:25:43.314,347,1695.992
2026-07-27 14:25:43.315,361,1764.418
2026-07-27 14:25:43.315,395,1930.596
2026-07-27 14:25:43.315,452,2209.189
2026-07-27 14:25:43.315,486,2375.367
2026-07-27 14:25:43.315,411,2008.798
2026-07-27 14:25:43.316,281,1373.412
2026-07-27 14:25:43.317,200,977.517
2026-07-27 14:25:43.360,202,987.292
2026-07-27 14:25:43.360,266,1300.098
2026-07-27 14:25:43.360,311,1520.039
2026-07-27 14:25:43.361,331,1617.791
2026-07-27 14:25:43.361,338,1652.004
2026-07-27 14:25:43.361,341,1666.667
2026-07-27 14:25:43.361,341,1666.667
2026-07-27 14:25:43.361,340,1661.779
2026-07-27 14:25:43.364,336,1642.229
2026-07-27 14:25:43.407,337,1647.116
2026-07-27 14:25:43.407,339,1656.891
2026-07-27 14:25:43.407,339,1656.891
2026-07-27 14:25:43.408,340,1661.779
2026-07-27 14:25:43.408,341,1666.667
2026-07-27 14:25:43.408,342,1671.554
2026-07-27 14:25:43.408,342,1671.554
2026-07-27 14:25:43.408,342,1671.554
2026-07-27 14:25:43.410,344,1681.329
2026-07-27 14:25:43.454,345,1686.217
2026-07-27 14:25:43.455,347,1695.992
2026-07-27 14:25:43.455,347,1695.992
2026-07-27 14:25:43.455,348,1700.88
2026-07-27 14:25:43.455,351,1715.543
2026-07-27 14:25:43.455,355,1735.093
2026-07-27 14:25:43.455,354,1730.205
2026-07-27 14:25:43.455,356,1739.98
2026-07-27 14:25:43.457,358,1749.756
2026-07-27 14:25:43.486,362,1769.306
2026-07-27 14:25:43.487,364,1779.081
2026-07-27 14:25:43.487,366,1788.856
2026-07-27 14:25:43.487,373,1823.069
2026-07-27 14:25:43.487,382,1867.058
2026-07-27 14:25:43.490,387,1891.496
2026-07-27 14:25:43.494,392,1915.934
2026-07-27 14:25:43.519,401,1959.922
2026-07-27 14:25:43.519,410,2003.91
2026-07-27 14:25:43.519,416,2033.236
2026-07-27 14:25:43.519,417,2038.123
2026-07-27 14:25:43.519,420,2052.786
2026-07-27 14:25:43.563,420,2052.786
2026-07-27 14:25:43.563,412,2013.685
2026-07-27 14:25:43.563,401,1959.922
2026-07-27 14:25:43.563,389,1901.271
2026-07-27 14:25:43.564,372,1818.182
2026-07-27 14:25:43.564,353,1725.318
2026-07-27 14:25:43.564,337,1647.116
2026-07-27 14:25:43.564,326,1593.353
2026-07-27 14:25:43.567,317,1549.365
2026-07-27 14:25:43.610,309,1510.264
2026-07-27 14:25:43.610,301,1471.163
2026-07-27 14:25:43.610,299,1461.388
2026-07-27 14:25:43.610,298,1456.5
2026-07-27 14:25:43.610,297,1451.613
2026-07-27 14:25:43.610,296,1446.725
2026-07-27 14:25:43.614,296,1446.725
2026-07-27 14:25:43.621,295,1441.838
2026-07-27 14:25:43.621,294,1436.95
2026-07-27 14:25:43.621,294,1436.95
2026-07-27 14:25:43.628,298,1456.5
2026-07-27 14:25:43.631,299,1461.388
2026-07-27 14:25:43.635,300,1466.276
2026-07-27 14:25:43.672,300,1466.276
2026-07-27 14:25:43.672,303,1480.938
2026-07-27 14:25:43.672,304,1485.826
2026-07-27 14:25:43.672,305,1490.714
2026-07-27 14:25:43.672,306,1495.601
2026-07-27 14:25:43.673,308,1505.376
2026-07-27 14:25:43.673,309,1510.264
2026-07-27 14:25:43.717,310,1515.152
2026-07-27 14:25:43.718,311,1520.039
2026-07-27 14:25:43.718,313,1529.814
2026-07-27 14:25:43.718,312,1524.927
2026-07-27 14:25:43.718,312,1524.927
2026-07-27 14:25:43.718,315,1539.589
2026-07-27 14:25:43.718,319,1559.14
2026-07-27 14:25:43.718,318,1554.252
2026-07-27 14:25:43.729,318,1554.252
2026-07-27 14:25:43.729,321,1568.915
2026-07-27 14:25:43.729,325,1588.465
2026-07-27 14:25:43.737,324,1583.578
2026-07-27 14:25:43.738,322,1573.803
2026-07-27 14:25:43.780,324,1583.578
2026-07-27 14:25:43.780,324,1583.578
2026-07-27 14:25:43.780,323,1578.69
2026-07-27 14:25:43.780,323,1578.69
2026-07-27 14:25:43.780,325,1588.465
2026-07-27 14:25:43.780,325,1588.465
2026-07-27 14:25:43.780,324,1583.578
2026-07-27 14:25:43.784,323,1578.69
2026-07-27 14:25:43.785,325,1588.465
2026-07-27 14:25:43.827,327,1598.24
2026-07-27 14:25:43.827,327,1598.24
2026-07-27 14:25:43.827,327,1598.24
2026-07-27 14:25:43.827,329,1608.016
2026-07-27 14:25:43.828,328,1603.128
2026-07-27 14:25:43.828,326,1593.353
2026-07-27 14:25:43.828,325,1588.465
2026-07-27 14:25:43.831,328,1603.128
2026-07-27 14:25:43.833,328,1603.128
2026-07-27 14:25:43.838,327,1598.24
2026-07-27 14:25:43.873,327,1598.24
2026-07-27 14:25:43.873,328,1603.128
2026-07-27 14:25:43.873,329,1608.016
2026-07-27 14:25:43.873,329,1608.016
2026-07-27 14:25:43.874,329,1608.016
2026-07-27 14:25:43.874,331,1617.791
2026-07-27 14:25:43.876,331,1617.791
2026-07-27 14:25:43.878,330,1612.903
2026-07-27 14:25:43.921,328,1603.128
2026-07-27 14:25:43.921,330,1612.903
2026-07-27 14:25:43.921,329,1608.016
2026-07-27 14:25:43.922,327,1598.24
2026-07-27 14:25:43.922,326,1593.353
2026-07-27 14:25:43.922,327,1598.24
2026-07-27 14:25:43.922,327,1598.24
2026-07-27 14:25:43.925,328,1603.128
2026-07-27 14:25:43.925,328,1603.128
2026-07-27 14:25:43.968,329,1608.016
2026-07-27 14:25:43.968,329,1608.016
2026-07-27 14:25:43.968,329,1608.016
2026-07-27 14:25:43.968,327,1598.24
2026-07-27 14:25:43.968,329,1608.016
2026-07-27 14:25:43.968,326,1593.353
2026-07-27 14:25:43.968,324,1583.578
2026-07-27 14:25:43.968,325,1588.465
2026-07-27 14:25:44.014,327,1598.24
2026-07-27 14:25:44.014,327,1598.24
2026-07-27 14:25:44.014,326,1593.353
2026-07-27 14:25:44.014,327,1598.24
2026-07-27 14:25:44.014,329,1608.016
2026-07-27 14:25:44.024,327,1598.24
2026-07-27 14:25:44.025,326,1593.353
2026-07-27 14:25:44.025,329,1608.016
2026-07-27 14:25:44.025,330,1612.903
2026-07-27 14:25:44.025,329,1608.016
2026-07-27 14:25:44.025,328,1603.128
2026-07-27 14:25:44.076,330,1612.903
2026-07-27 14:25:44.076,331,1617.791
2026-07-27 14:25:44.076,330,1612.903
2026-07-27 14:25:44.076,328,1603.128
2026-07-27 14:25:44.077,330,1612.903
2026-07-27 14:25:44.077,332,1622.678
2026-07-27 14:25:44.077,330,1612.903
2026-07-27 14:25:44.077,329,1608.016
2026-07-27 14:25:44.077,331,1617.791
2026-07-27 14:25:44.077,335,1637.341
2026-07-27 14:25:44.081,334,1632.454
2026-07-27 14:25:44.123,333,1627.566
2026-07-27 14:25:44.123,335,1637.341
2026-07-27 14:25:44.123,335,1637.341
2026-07-27 14:25:44.123,335,1637.341
2026-07-27 14:25:44.123,336,1642.229
2026-07-27 14:25:44.123,341,1666.667
2026-07-27 14:25:44.123,342,1671.554
2026-07-27 14:25:44.127,340,1661.779
2026-07-27 14:25:44.129,337,1647.116
2026-07-27 14:25:44.135,334,1632.454
2026-07-27 14:25:44.185,332,1622.678
2026-07-27 14:25:44.185,331,1617.791
2026-07-27 14:25:44.185,328,1603.128
2026-07-27 14:25:44.185,326,1593.353
2026-07-27 14:25:44.186,325,1588.465
2026-07-27 14:25:44.186,325,1588.465
2026-07-27 14:25:44.186,326,1593.353
2026-07-27 14:25:44.186,326,1593.353
2026-07-27 14:25:44.186,328,1603.128
2026-07-27 14:25:44.187,330,1612.903
2026-07-27 14:25:44.190,333,1627.566
2026-07-27 14:25:44.231,343,1676.442
2026-07-27 14:25:44.231,351,1715.543
2026-07-27 14:25:44.231,372,1818.182
2026-07-27 14:25:44.231,416,2033.236
2026-07-27 14:25:44.231,474,2316.716
2026-07-27 14:25:44.231,475,2321.603
2026-07-27 14:25:44.231,366,1788.856
2026-07-27 14:25:44.232,252,1231.672
2026-07-27 14:25:44.278,194,948.192
2026-07-27 14:25:44.278,225,1099.707
2026-07-27 14:25:44.278,286,1397.849
2026-07-27 14:25:44.278,323,1578.69
2026-07-27 14:25:44.278,337,1647.116
2026-07-27 14:25:44.279,341,1666.667
2026-07-27 14:25:44.279,344,1681.329
2026-07-27 14:25:44.279,344,1681.329
2026-07-27 14:25:44.279,343,1676.442
2026-07-27 14:25:44.324,340,1661.779
2026-07-27 14:25:44.324,341,1666.667
2026-07-27 14:25:44.324,345,1686.217
2026-07-27 14:25:44.324,346,1691.105
2026-07-27 14:25:44.324,345,1686.217
2026-07-27 14:25:44.325,345,1686.217
2026-07-27 14:25:44.325,348,1700.88
2026-07-27 14:25:44.325,350,1710.655
2026-07-27 14:25:44.325,350,1710.655
2026-07-27 14:25:44.370,347,1695.992
2026-07-27 14:25:44.370,349,1705.767
2026-07-27 14:25:44.370,350,1710.655
2026-07-27 14:25:44.370,350,1710.655
2026-07-27 14:25:44.370,350,1710.655
2026-07-27 14:25:44.370,353,1725.318
2026-07-27 14:25:44.371,355,1735.093
2026-07-27 14:25:44.371,356,1739.98
2026-07-27 14:25:44.372,357,1744.868
2026-07-27 14:25:44.417,360,1759.531
2026-07-27 14:25:44.417,363,1774.194
2026-07-27 14:25:44.417,366,1788.856
2026-07-27 14:25:44.417,370,1808.407
2026-07-27 14:25:44.418,377,1842.62
2026-07-27 14:25:44.418,382,1867.058
2026-07-27 14:25:44.418,391,1911.046
2026-07-27 14:25:44.418,398,1945.259
2026-07-27 14:25:44.419,406,1984.36
2026-07-27 14:25:44.463,413,2018.573
2026-07-27 14:25:44.464,419,2047.898
2026-07-27 14:25:44.464,422,2062.561
2026-07-27 14:25:44.464,423,2067.449
2026-07-27 14:25:44.464,422,2062.561
2026-07-27 14:25:44.464,416,2033.236
2026-07-27 14:25:44.464,405,1979.472
2026-07-27 14:25:44.465,391,1911.046
2026-07-27 14:25:44.466,370,1808.407
2026-07-27 14:25:44.511,354,1730.205
2026-07-27 14:25:44.512,341,1666.667
2026-07-27 14:25:44.512,331,1617.791
2026-07-27 14:25:44.512,319,1559.14
2026-07-27 14:25:44.512,310,1515.152
2026-07-27 14:25:44.513,305,1490.714
2026-07-27 14:25:44.513,302,1476.051
2026-07-27 14:25:44.514,298,1456.5
2026-07-27 14:25:44.516,296,1446.725
2026-07-27 14:25:44.518,296,1446.725
2026-07-27 14:25:44.557,297,1451.613
2026-07-27 14:25:44.557,295,1441.838
2026-07-27 14:25:44.557,293,1432.063
2026-07-27 14:25:44.557,296,1446.725
2026-07-27 14:25:44.558,297,1451.613
2026-07-27 14:25:44.558,298,1456.5
2026-07-27 14:25:44.558,297,1451.613
2026-07-27 14:25:44.561,299,1461.388
2026-07-27 14:25:44.565,302,1476.051
2026-07-27 14:25:44.604,300,1466.276
2026-07-27 14:25:44.604,300,1466.276
2026-07-27 14:25:44.604,303,1480.938
2026-07-27 14:25:44.604,304,1485.826
2026-07-27 14:25:44.605,303,1480.938
2026-07-27 14:25:44.605,303,1480.938
2026-07-27 14:25:44.605,306,1495.601
2026-07-27 14:25:44.607,306,1495.601
2026-07-27 14:25:44.648,305,1490.714
2026-07-27 14:25:44.649,305,1490.714
2026-07-27 14:25:44.649,306,1495.601
2026-07-27 14:25:44.649,308,1505.376
2026-07-27 14:25:44.649,308,1505.376
2026-07-27 14:25:44.649,307,1500.489
2026-07-27 14:25:44.652,309,1510.264
2026-07-27 14:25:44.652,311,1520.039
2026-07-27 14:25:44.653,311,1520.039
2026-07-27 14:25:44.696,309,1510.264
2026-07-27 14:25:44.697,310,1515.152
2026-07-27 14:25:44.697,313,1529.814
2026-07-27 14:25:44.697,313,1529.814
2026-07-27 14:25:44.697,313,1529.814
2026-07-27 14:25:44.697,314,1534.702
2026-07-27 14:25:44.697,315,1539.589
2026-07-27 14:25:44.697,315,1539.589
2026-07-27 14:25:44.729,314,1534.702
2026-07-27 14:25:44.729,315,1539.589
2026-07-27 14:25:44.751,315,1539.589
2026-07-27 14:25:44.751,316,1544.477
2026-07-27 14:25:44.751,315,1539.589
2026-07-27 14:25:44.751,317,1549.365
2026-07-27 14:25:44.751,314,1534.702
2026-07-27 14:25:44.751,314,1534.702
2026-07-27 14:25:44.751,314,1534.702
2026-07-27 14:25:44.751,317,1549.365
2026-07-27 14:25:44.752,314,1534.702
2026-07-27 14:25:44.788,313,1529.814
2026-07-27 14:25:44.788,315,1539.589
2026-07-27 14:25:44.788,319,1559.14
2026-07-27 14:25:44.789,317,1549.365
2026-07-27 14:25:44.789,316,1544.477
2026-07-27 14:25:44.789,316,1544.477
2026-07-27 14:25:44.789,320,1564.027
2026-07-27 14:25:44.820,318,1554.252
2026-07-27 14:25:44.820,317,1549.365
2026-07-27 14:25:44.820,317,1549.365
2026-07-27 14:25:44.820,320,1564.027
2026-07-27 14:25:44.821,318,1554.252
2026-07-27 14:25:44.821,317,1549.365
2026-07-27 14:25:44.828,319,1559.14
2026-07-27 14:25:44.830,317,1549.365
2026-07-27 14:25:44.866,317,1549.365
2026-07-27 14:25:44.866,317,1549.365
2026-07-27 14:25:44.866,319,1559.14
2026-07-27 14:25:44.866,320,1564.027
2026-07-27 14:25:44.867,320,1564.027
2026-07-27 14:25:44.867,319,1559.14
2026-07-27 14:25:44.868,320,1564.027
2026-07-27 14:25:44.872,320,1564.027
2026-07-27 14:25:44.913,318,1554.252
2026-07-27 14:25:44.913,318,1554.252
2026-07-27 14:25:44.913,320,1564.027
2026-07-27 14:25:44.913,320,1564.027
2026-07-27 14:25:44.913,320,1564.027
2026-07-27 14:25:44.913,318,1554.252
2026-07-27 14:25:44.913,318,1554.252
2026-07-27 14:25:44.913,318,1554.252
2026-07-27 14:25:44.958,320,1564.027
2026-07-27 14:25:44.958,320,1564.027
2026-07-27 14:25:44.958,321,1568.915
2026-07-27 14:25:44.959,320,1564.027
2026-07-27 14:25:44.959,318,1554.252
2026-07-27 14:25:44.959,318,1554.252
2026-07-27 14:25:44.959,318,1554.252
2026-07-27 14:25:44.959,318,1554.252
2026-07-27 14:25:44.962,318,1554.252
2026-07-27 14:25:44.966,318,1554.252
2026-07-27 14:25:45.007,319,1559.14
2026-07-27 14:25:45.007,318,1554.252
2026-07-27 14:25:45.008,318,1554.252
2026-07-27 14:25:45.008,319,1559.14
2026-07-27 14:25:45.008,322,1573.803
2026-07-27 14:25:45.008,321,1568.915
2026-07-27 14:25:45.008,320,1564.027
2026-07-27 14:25:45.009,318,1554.252
2026-07-27 14:25:45.013,322,1573.803
2026-07-27 14:25:45.056,321,1568.915
2026-07-27 14:25:45.056,320,1564.027
2026-07-27 14:25:45.056,320,1564.027
2026-07-27 14:25:45.056,323,1578.69
2026-07-27 14:25:45.056,320,1564.027
2026-07-27 14:25:45.056,316,1544.477
2026-07-27 14:25:45.056,318,1554.252
2026-07-27 14:25:45.056,322,1573.803
2026-07-27 14:25:45.059,319,1559.14
2026-07-27 14:25:45.102,317,1549.365
2026-07-27 14:25:45.103,321,1568.915
2026-07-27 14:25:45.103,323,1578.69
2026-07-27 14:25:45.103,321,1568.915
2026-07-27 14:25:45.103,319,1559.14
2026-07-27 14:25:45.103,324,1583.578
2026-07-27 14:25:45.103,326,1593.353
2026-07-27 14:25:45.103,327,1598.24
2026-07-27 14:25:45.106,329,1608.016
2026-07-27 14:25:45.149,333,1627.566
2026-07-27 14:25:45.149,333,1627.566
2026-07-27 14:25:45.149,333,1627.566
2026-07-27 14:25:45.149,330,1612.903
2026-07-27 14:25:45.149,326,1593.353
2026-07-27 14:25:45.149,325,1588.465
2026-07-27 14:25:45.149,324,1583.578
2026-07-27 14:25:45.149,319,1559.14
2026-07-27 14:25:45.153,321,1568.915
2026-07-27 14:25:45.196,322,1573.803
2026-07-27 14:25:45.199,323,1578.69
2026-07-27 14:25:45.199,325,1588.465
2026-07-27 14:25:45.199,326,1593.353
2026-07-27 14:25:45.199,325,1588.465
2026-07-27 14:25:45.199,329,1608.016
2026-07-27 14:25:45.199,333,1627.566
2026-07-27 14:25:45.199,345,1686.217
2026-07-27 14:25:45.200,357,1744.868
2026-07-27 14:25:45.242,387,1891.496
2026-07-27 14:25:45.242,438,2140.762
2026-07-27 14:25:45.242,491,2399.804
2026-07-27 14:25:45.242,457,2233.627
2026-07-27 14:25:45.242,320,1564.027
2026-07-27 14:25:45.243,216,1055.718
2026-07-27 14:25:45.243,194,948.192
2026-07-27 14:25:45.243,253,1236.559
2026-07-27 14:25:45.246,304,1485.826
2026-07-27 14:25:45.289,323,1578.69
2026-07-27 14:25:45.289,335,1637.341
2026-07-27 14:25:45.289,342,1671.554
2026-07-27 14:25:45.289,344,1681.329
2026-07-27 14:25:45.289,342,1671.554
2026-07-27 14:25:45.289,340,1661.779
2026-07-27 14:25:45.289,339,1656.891
2026-07-27 14:25:45.289,340,1661.779
2026-07-27 14:25:45.293,343,1676.442
2026-07-27 14:25:45.336,344,1681.329
2026-07-27 14:25:45.336,343,1676.442
2026-07-27 14:25:45.336,342,1671.554
2026-07-27 14:25:45.336,345,1686.217
2026-07-27 14:25:45.336,346,1691.105
2026-07-27 14:25:45.336,345,1686.217
2026-07-27 14:25:45.336,344,1681.329
2026-07-27 14:25:45.337,347,1695.992
2026-07-27 14:25:45.367,348,1700.88
2026-07-27 14:25:45.367,348,1700.88
2026-07-27 14:25:45.367,349,1705.767
2026-07-27 14:25:45.367,352,1720.43
2026-07-27 14:25:45.367,354,1730.205
2026-07-27 14:25:45.368,356,1739.98
2026-07-27 14:25:45.371,358,1749.756
2026-07-27 14:25:45.413,362,1769.306
2026-07-27 14:25:45.414,367,1793.744
2026-07-27 14:25:45.414,368,1798.631
2026-07-27 14:25:45.414,371,1813.294
2026-07-27 14:25:45.414,379,1852.395
2026-07-27 14:25:45.414,387,1891.496
2026-07-27 14:25:45.414,393,1920.821
2026-07-27 14:25:45.415,400,1955.034
2026-07-27 14:25:45.418,407,1989.247
2026-07-27 14:25:45.460,412,2013.685
2026-07-27 14:25:45.460,417,2038.123
2026-07-27 14:25:45.460,418,2043.011
2026-07-27 14:25:45.460,420,2052.786
2026-07-27 14:25:45.460,419,2047.898
2026-07-27 14:25:45.460,411,2008.798
2026-07-27 14:25:45.461,398,1945.259
2026-07-27 14:25:45.461,382,1867.058
2026-07-27 14:25:45.464,366,1788.856
2026-07-27 14:25:45.506,351,1715.543
2026-07-27 14:25:45.506,338,1652.004
2026-07-27 14:25:45.506,328,1603.128
2026-07-27 14:25:45.506,318,1554.252
2026-07-27 14:25:45.507,310,1515.152
2026-07-27 14:25:45.507,304,1485.826
2026-07-27 14:25:45.507,303,1480.938
2026-07-27 14:25:45.509,298,1456.5
2026-07-27 14:25:45.512,296,1446.725
2026-07-27 14:25:45.552,296,1446.725
2026-07-27 14:25:45.553,297,1451.613
2026-07-27 14:25:45.553,296,1446.725
2026-07-27 14:25:45.553,296,1446.725
2026-07-27 14:25:45.553,298,1456.5
2026-07-27 14:25:45.553,301,1471.163
2026-07-27 14:25:45.553,301,1471.163
2026-07-27 14:25:45.554,300,1466.276
2026-07-27 14:25:45.559,303,1480.938
2026-07-27 14:25:45.600,306,1495.601
2026-07-27 14:25:45.600,306,1495.601
2026-07-27 14:25:45.601,304,1485.826
2026-07-27 14:25:45.601,307,1500.489
2026-07-27 14:25:45.601,307,1500.489
2026-07-27 14:25:45.601,305,1490.714
2026-07-27 14:25:45.601,304,1485.826
2026-07-27 14:25:45.602,307,1500.489
2026-07-27 14:25:45.605,308,1505.376
2026-07-27 14:25:45.647,308,1505.376
2026-07-27 14:25:45.648,308,1505.376
2026-07-27 14:25:45.648,311,1520.039
2026-07-27 14:25:45.648,312,1524.927
2026-07-27 14:25:45.648,313,1529.814
2026-07-27 14:25:45.648,312,1524.927
2026-07-27 14:25:45.648,313,1529.814
2026-07-27 14:25:45.651,313,1529.814
2026-07-27 14:25:45.652,313,1529.814
2026-07-27 14:25:45.678,312,1524.927
2026-07-27 14:25:45.678,316,1544.477
2026-07-27 14:25:45.678,318,1554.252
2026-07-27 14:25:45.678,319,1559.14
2026-07-27 14:25:45.680,318,1554.252
2026-07-27 14:25:45.685,318,1554.252
2026-07-27 14:25:45.688,320,1564.027
2026-07-27 14:25:45.725,320,1564.027
2026-07-27 14:25:45.725,319,1559.14
2026-07-27 14:25:45.725,321,1568.915
2026-07-27 14:25:45.725,322,1573.803
2026-07-27 14:25:45.725,321,1568.915
2026-07-27 14:25:45.725,321,1568.915
2026-07-27 14:25:45.726,322,1573.803
2026-07-27 14:25:45.730,321,1568.915
2026-07-27 14:25:45.803,321,1568.915
2026-07-27 14:25:45.803,320,1564.027
2026-07-27 14:25:45.803,321,1568.915
2026-07-27 14:25:45.804,321,1568.915
2026-07-27 14:25:45.804,322,1573.803
2026-07-27 14:25:45.804,321,1568.915
2026-07-27 14:25:45.804,322,1573.803
2026-07-27 14:25:45.804,320,1564.027
2026-07-27 14:25:45.804,320,1564.027
2026-07-27 14:25:45.804,319,1559.14
2026-07-27 14:25:45.804,324,1583.578
2026-07-27 14:25:45.804,322,1573.803
2026-07-27 14:25:45.804,321,1568.915
2026-07-27 14:25:45.805,322,1573.803
2026-07-27 14:25:45.808,323,1578.69
2026-07-27 14:25:45.850,323,1578.69
2026-07-27 14:25:45.850,322,1573.803
2026-07-27 14:25:45.850,323,1578.69
2026-07-27 14:25:45.850,327,1598.24
2026-07-27 14:25:45.851,324,1583.578
2026-07-27 14:25:45.851,322,1573.803
2026-07-27 14:25:45.851,324,1583.578
2026-07-27 14:25:45.851,324,1583.578
2026-07-27 14:25:45.854,324,1583.578
2026-07-27 14:25:45.897,325,1588.465
2026-07-27 14:25:45.897,327,1598.24
2026-07-27 14:25:45.897,328,1603.128
2026-07-27 14:25:45.897,328,1603.128
2026-07-27 14:25:45.897,325,1588.465
2026-07-27 14:25:45.897,327,1598.24
2026-07-27 14:25:45.898,326,1593.353
2026-07-27 14:25:45.901,325,1588.465
2026-07-27 14:25:45.902,323,1578.69
2026-07-27 14:25:45.944,326,1593.353
2026-07-27 14:25:45.963,326,1593.353
2026-07-27 14:25:45.964,326,1593.353
2026-07-27 14:25:45.964,325,1588.465
2026-07-27 14:25:45.964,327,1598.24
2026-07-27 14:25:45.964,326,1593.353
2026-07-27 14:25:45.964,327,1598.24
2026-07-27 14:25:45.964,326,1593.353
2026-07-27 14:25:45.964,327,1598.24
2026-07-27 14:25:45.964,326,1593.353
2026-07-27 14:25:45.965,326,1593.353
2026-07-27 14:25:45.965,326,1593.353
2026-07-27 14:25:45.969,327,1598.24
2026-07-27 14:25:46.006,326,1593.353
2026-07-27 14:25:46.006,324,1583.578
2026-07-27 14:25:46.006,323,1578.69
2026-07-27 14:25:46.007,324,1583.578
2026-07-27 14:25:46.007,325,1588.465
2026-07-27 14:25:46.007,325,1588.465
2026-07-27 14:25:46.007,326,1593.353
2026-07-27 14:25:46.010,327,1598.24
2026-07-27 14:25:46.054,327,1598.24
2026-07-27 14:25:46.054,328,1603.128
2026-07-27 14:25:46.055,327,1598.24
2026-07-27 14:25:46.055,327,1598.24
2026-07-27 14:25:46.055,328,1603.128
2026-07-27 14:25:46.055,328,1603.128
2026-07-27 14:25:46.055,330,1612.903
2026-07-27 14:25:46.055,331,1617.791
2026-07-27 14:25:46.057,329,1608.016
2026-07-27 14:25:46.099,329,1608.016
2026-07-27 14:25:46.099,331,1617.791
2026-07-27 14:25:46.099,333,1627.566
2026-07-27 14:25:46.099,331,1617.791
2026-07-27 14:25:46.099,332,1622.678
2026-07-27 14:25:46.099,335,1637.341
2026-07-27 14:25:46.099,337,1647.116
2026-07-27 14:25:46.100,338,1652.004
2026-07-27 14:25:46.131,339,1656.891
2026-07-27 14:25:46.131,341,1666.667
2026-07-27 14:25:46.131,341,1666.667
2026-07-27 14:25:46.131,339,1656.891
2026-07-27 14:25:46.131,335,1637.341
2026-07-27 14:25:46.131,335,1637.341
2026-07-27 14:25:46.135,336,1642.229
2026-07-27 14:25:46.176,332,1622.678
2026-07-27 14:25:46.176,329,1608.016
2026-07-27 14:25:46.176,329,1608.016
2026-07-27 14:25:46.176,329,1608.016
2026-07-27 14:25:46.176,329,1608.016
2026-07-27 14:25:46.176,330,1612.903
2026-07-27 14:25:46.176,333,1627.566
2026-07-27 14:25:46.177,336,1642.229
2026-07-27 14:25:46.208,339,1656.891
2026-07-27 14:25:46.208,347,1695.992
2026-07-27 14:25:46.208,357,1744.868
2026-07-27 14:25:46.208,384,1876.833
2026-07-27 14:25:46.210,432,2111.437
2026-07-27 14:25:46.210,483,2360.704
2026-07-27 14:25:46.213,465,2272.727
2026-07-27 14:25:46.238,349,1705.767
2026-07-27 14:25:46.238,252,1231.672
2026-07-27 14:25:46.238,209,1021.505
2026-07-27 14:25:46.238,251,1226.784
2026-07-27 14:25:46.239,308,1505.376
2026-07-27 14:25:46.268,337,1647.116
2026-07-27 14:25:46.268,345,1686.217
2026-07-27 14:25:46.268,350,1710.655
2026-07-27 14:25:46.269,353,1725.318
2026-07-27 14:25:46.269,351,1715.543
2026-07-27 14:25:46.272,347,1695.992
2026-07-27 14:25:46.276,347,1695.992
2026-07-27 14:25:46.313,347,1695.992
2026-07-27 14:25:46.313,346,1691.105
2026-07-27 14:25:46.313,346,1691.105
2026-07-27 14:25:46.313,350,1710.655
2026-07-27 14:25:46.313,348,1700.88
2026-07-27 14:25:46.314,347,1695.992
2026-07-27 14:25:46.314,348,1700.88
2026-07-27 14:25:46.317,350,1710.655
2026-07-27 14:25:46.360,348,1700.88
2026-07-27 14:25:46.360,348,1700.88
2026-07-27 14:25:46.361,351,1715.543
2026-07-27 14:25:46.361,353,1725.318
2026-07-27 14:25:46.361,352,1720.43
2026-07-27 14:25:46.361,350,1710.655
2026-07-27 14:25:46.362,353,1725.318
2026-07-27 14:25:46.362,356,1739.98
2026-07-27 14:25:46.365,356,1739.98
2026-07-27 14:25:46.405,355,1735.093
2026-07-27 14:25:46.405,361,1764.418
2026-07-27 14:25:46.405,366,1788.856
2026-07-27 14:25:46.405,370,1808.407
2026-07-27 14:25:46.406,374,1827.957
2026-07-27 14:25:46.406,384,1876.833
2026-07-27 14:25:46.406,392,1915.934
2026-07-27 14:25:46.406,397,1940.371
2026-07-27 14:25:46.452,403,1969.697
2026-07-27 14:25:46.452,413,2018.573
2026-07-27 14:25:46.453,419,2047.898
2026-07-27 14:25:46.454,423,2067.449
2026-07-27 14:25:46.454,423,2067.449
2026-07-27 14:25:46.454,424,2072.336
2026-07-27 14:25:46.454,418,2043.011
2026-07-27 14:25:46.455,407,1989.247
2026-07-27 14:25:46.457,391,1911.046
2026-07-27 14:25:46.458,374,1827.957
2026-07-27 14:25:46.498,358,1749.756
2026-07-27 14:25:46.498,342,1671.554
2026-07-27 14:25:46.498,329,1608.016
2026-07-27 14:25:46.498,320,1564.027
2026-07-27 14:25:46.498,312,1524.927
2026-07-27 14:25:46.499,308,1505.376
2026-07-27 14:25:46.499,305,1490.714
2026-07-27 14:25:46.499,304,1485.826
2026-07-27 14:25:46.545,302,1476.051
2026-07-27 14:25:46.545,301,1471.163
2026-07-27 14:25:46.545,300,1466.276
2026-07-27 14:25:46.545,299,1461.388
2026-07-27 14:25:46.545,299,1461.388
2026-07-27 14:25:46.545,301,1471.163
2026-07-27 14:25:46.545,301,1471.163
2026-07-27 14:25:46.545,302,1476.051
2026-07-27 14:25:46.546,300,1466.276
2026-07-27 14:25:46.593,300,1466.276
2026-07-27 14:25:46.593,300,1466.276
2026-07-27 14:25:46.593,302,1476.051
2026-07-27 14:25:46.593,300,1466.276
2026-07-27 14:25:46.594,300,1466.276
2026-07-27 14:25:46.594,302,1476.051
2026-07-27 14:25:46.594,302,1476.051
2026-07-27 14:25:46.594,299,1461.388
2026-07-27 14:25:46.594,299,1461.388
2026-07-27 14:25:46.598,301,1471.163
2026-07-27 14:25:46.638,303,1480.938
2026-07-27 14:25:46.639,302,1476.051
2026-07-27 14:25:46.639,299,1461.388
2026-07-27 14:25:46.639,302,1476.051
2026-07-27 14:25:46.639,304,1485.826
2026-07-27 14:25:46.639,302,1476.051
2026-07-27 14:25:46.639,301,1471.163
2026-07-27 14:25:46.640,304,1485.826
2026-07-27 14:25:46.686,306,1495.601
2026-07-27 14:25:46.686,305,1490.714
2026-07-27 14:25:46.686,304,1485.826
2026-07-27 14:25:46.686,306,1495.601
2026-07-27 14:25:46.687,306,1495.601
2026-07-27 14:25:46.687,306,1495.601
2026-07-27 14:25:46.687,305,1490.714
2026-07-27 14:25:46.687,307,1500.489
2026-07-27 14:25:46.687,307,1500.489
2026-07-27 14:25:46.733,308,1505.376
2026-07-27 14:25:46.733,307,1500.489
2026-07-27 14:25:46.734,308,1505.376
2026-07-27 14:25:46.734,308,1505.376
2026-07-27 14:25:46.734,309,1510.264
2026-07-27 14:25:46.734,309,1510.264
2026-07-27 14:25:46.737,310,1515.152
2026-07-27 14:25:46.738,309,1510.264
2026-07-27 14:25:46.738,309,1510.264
2026-07-27 14:25:46.739,311,1520.039
2026-07-27 14:25:46.782,311,1520.039
2026-07-27 14:25:46.782,310,1515.152
2026-07-27 14:25:46.782,311,1520.039
2026-07-27 14:25:46.782,312,1524.927
2026-07-27 14:25:46.783,314,1534.702
2026-07-27 14:25:46.783,314,1534.702
2026-07-27 14:25:46.783,315,1539.589
2026-07-27 14:25:46.783,315,1539.589
2026-07-27 14:25:46.789,315,1539.589
2026-07-27 14:25:46.792,315,1539.589
2026-07-27 14:25:46.842,316,1544.477
2026-07-27 14:25:46.842,316,1544.477
2026-07-27 14:25:46.842,319,1559.14
2026-07-27 14:25:46.842,318,1554.252
2026-07-27 14:25:46.842,320,1564.027
2026-07-27 14:25:46.843,321,1568.915
2026-07-27 14:25:46.843,323,1578.69
2026-07-27 14:25:46.843,321,1568.915
2026-07-27 14:25:46.843,320,1564.027
2026-07-27 14:25:46.843,321,1568.915
2026-07-27 14:25:46.889,323,1578.69
2026-07-27 14:25:46.890,323,1578.69
2026-07-27 14:25:46.890,322,1573.803
2026-07-27 14:25:46.890,324,1583.578
2026-07-27 14:25:46.890,326,1593.353
2026-07-27 14:25:46.890,324,1583.578
2026-07-27 14:25:46.890,322,1573.803
2026-07-27 14:25:46.890,325,1588.465
2026-07-27 14:25:46.890,325,1588.465
2026-07-27 14:25:46.936,325,1588.465
2026-07-27 14:25:46.936,324,1583.578
2026-07-27 14:25:46.936,328,1603.128
2026-07-27 14:25:46.936,328,1603.128
2026-07-27 14:25:46.937,326,1593.353
2026-07-27 14:25:46.937,325,1588.465
2026-07-27 14:25:46.937,326,1593.353
2026-07-27 14:25:46.937,326,1593.353
2026-07-27 14:25:46.937,325,1588.465
2026-07-27 14:25:46.941,324,1583.578
2026-07-27 14:25:46.982,325,1588.465
2026-07-27 14:25:46.982,325,1588.465
2026-07-27 14:25:46.982,326,1593.353
2026-07-27 14:25:46.982,326,1593.353
2026-07-27 14:25:46.983,326,1593.353
2026-07-27 14:25:46.983,326,1593.353
2026-07-27 14:25:46.983,327,1598.24
2026-07-27 14:25:46.983,326,1593.353
2026-07-27 14:25:47.029,327,1598.24
2026-07-27 14:25:47.029,328,1603.128
2026-07-27 14:25:47.029,328,1603.128
2026-07-27 14:25:47.029,326,1593.353
2026-07-27 14:25:47.029,325,1588.465
2026-07-27 14:25:47.029,324,1583.578
2026-07-27 14:25:47.029,325,1588.465
2026-07-27 14:25:47.029,324,1583.578
2026-07-27 14:25:47.030,325,1588.465
2026-07-27 14:25:47.076,325,1588.465
2026-07-27 14:25:47.077,326,1593.353
2026-07-27 14:25:47.077,328,1603.128
2026-07-27 14:25:47.077,331,1617.791
2026-07-27 14:25:47.077,330,1612.903
2026-07-27 14:25:47.077,329,1608.016
2026-07-27 14:25:47.077,330,1612.903
2026-07-27 14:25:47.077,332,1622.678
2026-07-27 14:25:47.078,330,1612.903
2026-07-27 14:25:47.122,329,1608.016
2026-07-27 14:25:47.122,331,1617.791
2026-07-27 14:25:47.122,332,1622.678
2026-07-27 14:25:47.122,331,1617.791
2026-07-27 14:25:47.122,332,1622.678
2026-07-27 14:25:47.122,333,1627.566
2026-07-27 14:25:47.122,334,1632.454
2026-07-27 14:25:47.123,334,1632.454
2026-07-27 14:25:47.124,334,1632.454
2026-07-27 14:25:47.170,337,1647.116
2026-07-27 14:25:47.170,340,1661.779
2026-07-27 14:25:47.170,342,1671.554
2026-07-27 14:25:47.170,343,1676.442
2026-07-27 14:25:47.170,345,1686.217
2026-07-27 14:25:47.170,344,1681.329
2026-07-27 14:25:47.171,340,1661.779
2026-07-27 14:25:47.171,336,1642.229
2026-07-27 14:25:47.176,336,1642.229
2026-07-27 14:25:47.176,335,1637.341
2026-07-27 14:25:47.215,331,1617.791
2026-07-27 14:25:47.215,329,1608.016
2026-07-27 14:25:47.215,330,1612.903
2026-07-27 14:25:47.215,331,1617.791
2026-07-27 14:25:47.215,332,1622.678
2026-07-27 14:25:47.216,332,1622.678
2026-07-27 14:25:47.216,336,1642.229
2026-07-27 14:25:47.217,342,1671.554
2026-07-27 14:25:47.261,351,1715.543
2026-07-27 14:25:47.262,358,1749.756
2026-07-27 14:25:47.262,378,1847.507
2026-07-27 14:25:47.262,423,2067.449
2026-07-27 14:25:47.267,478,2336.266
2026-07-27 14:25:47.267,477,2331.378
2026-07-27 14:25:47.267,370,1808.407
2026-07-27 14:25:47.267,263,1285.435
2026-07-27 14:25:47.267,208,1016.618
2026-07-27 14:25:47.269,238,1163.245
2026-07-27 14:25:47.308,300,1466.276
2026-07-27 14:25:47.308,333,1627.566
2026-07-27 14:25:47.309,345,1686.217
2026-07-27 14:25:47.309,350,1710.655
2026-07-27 14:25:47.309,353,1725.318
2026-07-27 14:25:47.309,351,1715.543
2026-07-27 14:25:47.309,348,1700.88
2026-07-27 14:25:47.355,347,1695.992
2026-07-27 14:25:47.356,351,1715.543
2026-07-27 14:25:47.356,352,1720.43
2026-07-27 14:25:47.356,352,1720.43
2026-07-27 14:25:47.356,351,1715.543
2026-07-27 14:25:47.356,355,1735.093
2026-07-27 14:25:47.356,354,1730.205
2026-07-27 14:25:47.356,352,1720.43
2026-07-27 14:25:47.356,354,1730.205
2026-07-27 14:25:47.357,357,1744.868
2026-07-27 14:25:47.402,355,1735.093
2026-07-27 14:25:47.402,353,1725.318
2026-07-27 14:25:47.402,356,1739.98
2026-07-27 14:25:47.403,357,1744.868
2026-07-27 14:25:47.403,356,1739.98
2026-07-27 14:25:47.418,355,1735.093
2026-07-27 14:25:47.419,359,1754.643
2026-07-27 14:25:47.419,361,1764.418
2026-07-27 14:25:47.419,362,1769.306
2026-07-27 14:25:47.422,363,1774.194
2026-07-27 14:25:47.422,369,1803.519
2026-07-27 14:25:47.422,373,1823.069
2026-07-27 14:25:47.464,377,1842.62
2026-07-27 14:25:47.464,383,1871.945
2026-07-27 14:25:47.464,393,1920.821
2026-07-27 14:25:47.464,400,1955.034
2026-07-27 14:25:47.464,407,1989.247
2026-07-27 14:25:47.465,412,2013.685
2026-07-27 14:25:47.465,420,2052.786
2026-07-27 14:25:47.465,423,2067.449
2026-07-27 14:25:47.467,424,2072.336
2026-07-27 14:25:47.510,421,2057.674
2026-07-27 14:25:47.510,421,2057.674
2026-07-27 14:25:47.510,412,2013.685
2026-07-27 14:25:47.510,397,1940.371
2026-07-27 14:25:47.511,378,1847.507
2026-07-27 14:25:47.511,362,1769.306
2026-07-27 14:25:47.511,347,1695.992
2026-07-27 14:25:47.511,332,1622.678
2026-07-27 14:25:47.514,321,1568.915
2026-07-27 14:25:47.557,314,1534.702
2026-07-27 14:25:47.557,308,1505.376
2026-07-27 14:25:47.557,303,1480.938
2026-07-27 14:25:47.557,299,1461.388
2026-07-27 14:25:47.557,297,1451.613
2026-07-27 14:25:47.557,297,1451.613
2026-07-27 14:25:47.557,296,1446.725
2026-07-27 14:25:47.557,296,1446.725
2026-07-27 14:25:47.561,297,1451.613
2026-07-27 14:25:47.602,296,1446.725
2026-07-27 14:25:47.603,296,1446.725
2026-07-27 14:25:47.603,297,1451.613
2026-07-27 14:25:47.603,299,1461.388
2026-07-27 14:25:47.603,297,1451.613
2026-07-27 14:25:47.603,297,1451.613
2026-07-27 14:25:47.603,300,1466.276
2026-07-27 14:25:47.603,304,1485.826
2026-07-27 14:25:47.634,302,1476.051
2026-07-27 14:25:47.634,300,1466.276
2026-07-27 14:25:47.634,303,1480.938
2026-07-27 14:25:47.634,305,1490.714
2026-07-27 14:25:47.634,305,1490.714
2026-07-27 14:25:47.634,302,1476.051
2026-07-27 14:25:47.666,305,1490.714
2026-07-27 14:25:47.666,308,1505.376
2026-07-27 14:25:47.666,307,1500.489
2026-07-27 14:25:47.666,307,1500.489
2026-07-27 14:25:47.666,310,1515.152
2026-07-27 14:25:47.666,311,1520.039
2026-07-27 14:25:47.670,310,1515.152
2026-07-27 14:25:47.713,311,1520.039
2026-07-27 14:25:47.713,314,1534.702
2026-07-27 14:25:47.713,313,1529.814
2026-07-27 14:25:47.713,312,1524.927
2026-07-27 14:25:47.714,311,1520.039
2026-07-27 14:25:47.714,313,1529.814
2026-07-27 14:25:47.714,313,1529.814
2026-07-27 14:25:47.714,313,1529.814
2026-07-27 14:25:47.717,314,1534.702
2026-07-27 14:25:47.759,317,1549.365
2026-07-27 14:25:47.759,317,1549.365
2026-07-27 14:25:47.759,317,1549.365
2026-07-27 14:25:47.760,315,1539.589
2026-07-27 14:25:47.760,315,1539.589
2026-07-27 14:25:47.760,314,1534.702
2026-07-27 14:25:47.760,314,1534.702
2026-07-27 14:25:47.760,313,1529.814
2026-07-27 14:25:47.764,313,1529.814
2026-07-27 14:25:47.806,314,1534.702
2026-07-27 14:25:47.806,314,1534.702
2026-07-27 14:25:47.807,313,1529.814
2026-07-27 14:25:47.807,314,1534.702
2026-07-27 14:25:47.807,312,1524.927
2026-07-27 14:25:47.807,312,1524.927
2026-07-27 14:25:47.807,312,1524.927
2026-07-27 14:25:47.807,313,1529.814
2026-07-27 14:25:47.810,314,1534.702
2026-07-27 14:25:47.853,314,1534.702
2026-07-27 14:25:47.853,313,1529.814
2026-07-27 14:25:47.853,315,1539.589
2026-07-27 14:25:47.853,314,1534.702
2026-07-27 14:25:47.853,314,1534.702
2026-07-27 14:25:47.854,314,1534.702
2026-07-27 14:25:47.854,316,1544.477
2026-07-27 14:25:47.854,314,1534.702
2026-07-27 14:25:47.857,314,1534.702
2026-07-27 14:25:47.897,316,1544.477
2026-07-27 14:25:47.898,318,1554.252
2026-07-27 14:25:47.898,318,1554.252
2026-07-27 14:25:47.898,316,1544.477
2026-07-27 14:25:47.898,318,1554.252
2026-07-27 14:25:47.898,322,1573.803
2026-07-27 14:25:47.898,321,1568.915
2026-07-27 14:25:47.902,317,1549.365
2026-07-27 14:25:47.903,321,1568.915
2026-07-27 14:25:47.945,326,1593.353
2026-07-27 14:25:47.946,323,1578.69
2026-07-27 14:25:47.946,320,1564.027
2026-07-27 14:25:47.946,321,1568.915
2026-07-27 14:25:47.946,322,1573.803
2026-07-27 14:25:47.946,323,1578.69
2026-07-27 14:25:47.946,323,1578.69
2026-07-27 14:25:47.946,323,1578.69
2026-07-27 14:25:47.950,325,1588.465
2026-07-27 14:25:47.994,322,1573.803
2026-07-27 14:25:47.994,321,1568.915
2026-07-27 14:25:47.994,323,1578.69
2026-07-27 14:25:47.994,324,1583.578
2026-07-27 14:25:47.994,324,1583.578
2026-07-27 14:25:47.994,323,1578.69
2026-07-27 14:25:47.995,323,1578.69
2026-07-27 14:25:47.998,323,1578.69
2026-07-27 14:25:47.998,323,1578.69
2026-07-27 14:25:48.039,321,1568.915
2026-07-27 14:25:48.040,322,1573.803
2026-07-27 14:25:48.040,322,1573.803
2026-07-27 14:25:48.040,322,1573.803
2026-07-27 14:25:48.040,321,1568.915
2026-07-27 14:25:48.040,322,1573.803
2026-07-27 14:25:48.040,324,1583.578
2026-07-27 14:25:48.040,324,1583.578
2026-07-27 14:25:48.044,323,1578.69
2026-07-27 14:25:48.085,323,1578.69
2026-07-27 14:25:48.085,323,1578.69
2026-07-27 14:25:48.086,325,1588.465
2026-07-27 14:25:48.086,326,1593.353
2026-07-27 14:25:48.086,326,1593.353
2026-07-27 14:25:48.086,325,1588.465
2026-07-27 14:25:48.086,325,1588.465
2026-07-27 14:25:48.086,326,1593.353
2026-07-27 14:25:48.116,327,1598.24
2026-07-27 14:25:48.116,326,1593.353
2026-07-27 14:25:48.117,324,1583.578
2026-07-27 14:25:48.117,324,1583.578
2026-07-27 14:25:48.117,325,1588.465
2026-07-27 14:25:48.117,324,1583.578
2026-07-27 14:25:48.148,326,1593.353
2026-07-27 14:25:48.148,328,1603.128
2026-07-27 14:25:48.148,328,1603.128
2026-07-27 14:25:48.148,326,1593.353
2026-07-27 14:25:48.148,326,1593.353
2026-07-27 14:25:48.149,328,1603.128
2026-07-27 14:25:48.179,329,1608.016
2026-07-27 14:25:48.179,327,1598.24
2026-07-27 14:25:48.179,330,1612.903
2026-07-27 14:25:48.179,336,1642.229
2026-07-27 14:25:48.180,337,1647.116
2026-07-27 14:25:48.180,335,1637.341
2026-07-27 14:25:48.208,331,1617.791
2026-07-27 14:25:48.209,329,1608.016
2026-07-27 14:25:48.209,327,1598.24
2026-07-27 14:25:48.209,326,1593.353
2026-07-27 14:25:48.209,322,1573.803
2026-07-27 14:25:48.210,321,1568.915
2026-07-27 14:25:48.239,321,1568.915
2026-07-27 14:25:48.239,321,1568.915
2026-07-27 14:25:48.240,321,1568.915
2026-07-27 14:25:48.240,322,1573.803
2026-07-27 14:25:48.240,325,1588.465
2026-07-27 14:25:48.242,327,1598.24
2026-07-27 14:25:48.270,331,1617.791
2026-07-27 14:25:48.271,344,1681.329
2026-07-27 14:25:48.271,359,1754.643
2026-07-27 14:25:48.271,397,1940.371
2026-07-27 14:25:48.271,452,2209.189
2026-07-27 14:25:48.273,490,2394.917
2026-07-27 14:25:48.302,417,2038.123
2026-07-27 14:25:48.306,282,1378.299
2026-07-27 14:25:48.306,197,962.854
2026-07-27 14:25:48.306,200,977.517
2026-07-27 14:25:48.306,265,1295.21
2026-07-27 14:25:48.306,309,1510.264
2026-07-27 14:25:48.309,321,1568.915
2026-07-27 14:25:48.348,330,1612.903
2026-07-27 14:25:48.348,336,1642.229
2026-07-27 14:25:48.348,337,1647.116
2026-07-27 14:25:48.349,333,1627.566
2026-07-27 14:25:48.349,331,1617.791
2026-07-27 14:25:48.349,333,1627.566
2026-07-27 14:25:48.349,336,1642.229
2026-07-27 14:25:48.351,337,1647.116
2026-07-27 14:25:48.380,339,1656.891
2026-07-27 14:25:48.380,336,1642.229
2026-07-27 14:25:48.380,336,1642.229
2026-07-27 14:25:48.380,338,1652.004
2026-07-27 14:25:48.381,341,1666.667
2026-07-27 14:25:48.382,342,1671.554
2026-07-27 14:25:48.411,342,1671.554
2026-07-27 14:25:48.411,342,1671.554
2026-07-27 14:25:48.411,343,1676.442
2026-07-27 14:25:48.412,344,1681.329
2026-07-27 14:25:48.412,344,1681.329
2026-07-27 14:25:48.413,347,1695.992
2026-07-27 14:25:48.442,350,1710.655
2026-07-27 14:25:48.442,349,1705.767
2026-07-27 14:25:48.442,351,1715.543
2026-07-27 14:25:48.442,356,1739.98
2026-07-27 14:25:48.442,361,1764.418
2026-07-27 14:25:48.449,363,1774.194
2026-07-27 14:25:48.450,367,1793.744
2026-07-27 14:25:48.489,376,1837.732
2026-07-27 14:25:48.489,384,1876.833
2026-07-27 14:25:48.490,390,1906.158
2026-07-27 14:25:48.490,396,1935.484
2026-07-27 14:25:48.490,405,1979.472
2026-07-27 14:25:48.490,411,2008.798
2026-07-27 14:25:48.490,416,2033.236
2026-07-27 14:25:48.491,415,2028.348
2026-07-27 14:25:48.521,416,2033.236
2026-07-27 14:25:48.521,416,2033.236
2026-07-27 14:25:48.521,408,1994.135
2026-07-27 14:25:48.521,394,1925.709
2026-07-27 14:25:48.521,380,1857.283
2026-07-27 14:25:48.522,363,1774.194
2026-07-27 14:25:48.552,347,1695.992
2026-07-27 14:25:48.552,332,1622.678
2026-07-27 14:25:48.553,322,1573.803
2026-07-27 14:25:48.553,315,1539.589
2026-07-27 14:25:48.553,307,1500.489
2026-07-27 14:25:48.554,301,1471.163
2026-07-27 14:25:48.584,296,1446.725
2026-07-27 14:25:48.584,293,1432.063
2026-07-27 14:25:48.584,292,1427.175
2026-07-27 14:25:48.585,292,1427.175
2026-07-27 14:25:48.585,292,1427.175
2026-07-27 14:25:48.585,291,1422.287
2026-07-27 14:25:48.615,290,1417.4
2026-07-27 14:25:48.615,290,1417.4
2026-07-27 14:25:48.615,293,1432.063
2026-07-27 14:25:48.615,294,1436.95
2026-07-27 14:25:48.618,294,1436.95
2026-07-27 14:25:48.618,293,1432.063
2026-07-27 14:25:48.621,295,1441.838
2026-07-27 14:25:48.662,295,1441.838
2026-07-27 14:25:48.662,296,1446.725
2026-07-27 14:25:48.663,298,1456.5
2026-07-27 14:25:48.663,301,1471.163
2026-07-27 14:25:48.663,300,1466.276
2026-07-27 14:25:48.663,300,1466.276
2026-07-27 14:25:48.663,300,1466.276
2026-07-27 14:25:48.663,304,1485.826
2026-07-27 14:25:48.693,303,1480.938
2026-07-27 14:25:48.693,302,1476.051
2026-07-27 14:25:48.694,304,1485.826
2026-07-27 14:25:48.694,308,1505.376
2026-07-27 14:25:48.694,308,1505.376
2026-07-27 14:25:48.694,307,1500.489
2026-07-27 14:25:48.725,310,1515.152
2026-07-27 14:25:48.725,311,1520.039
2026-07-27 14:25:48.725,311,1520.039
2026-07-27 14:25:48.725,310,1515.152
2026-07-27 14:25:48.725,310,1515.152
2026-07-27 14:25:48.726,313,1529.814
2026-07-27 14:25:48.756,313,1529.814
2026-07-27 14:25:48.757,313,1529.814
2026-07-27 14:25:48.757,313,1529.814
2026-07-27 14:25:48.757,313,1529.814
2026-07-27 14:25:48.757,314,1534.702
2026-07-27 14:25:48.757,314,1534.702
2026-07-27 14:25:48.789,314,1534.702
2026-07-27 14:25:48.789,313,1529.814
2026-07-27 14:25:48.789,312,1524.927
2026-07-27 14:25:48.789,312,1524.927
2026-07-27 14:25:48.789,315,1539.589
2026-07-27 14:25:48.790,315,1539.589
2026-07-27 14:25:48.793,314,1534.702
2026-07-27 14:25:48.835,311,1520.039
2026-07-27 14:25:48.838,313,1529.814
2026-07-27 14:25:48.838,315,1539.589
2026-07-27 14:25:48.838,316,1544.477
2026-07-27 14:25:48.839,316,1544.477
2026-07-27 14:25:48.839,319,1559.14
2026-07-27 14:25:48.839,320,1564.027
2026-07-27 14:25:48.839,318,1554.252
2026-07-27 14:25:48.840,317,1549.365
2026-07-27 14:25:48.880,318,1554.252
2026-07-27 14:25:48.881,320,1564.027
2026-07-27 14:25:48.881,321,1568.915
2026-07-27 14:25:48.881,321,1568.915
2026-07-27 14:25:48.881,321,1568.915
2026-07-27 14:25:48.881,321,1568.915
2026-07-27 14:25:48.882,323,1578.69
2026-07-27 14:25:48.882,323,1578.69
2026-07-27 14:25:48.913,325,1588.465
2026-07-27 14:25:48.913,324,1583.578
2026-07-27 14:25:48.913,324,1583.578
2026-07-27 14:25:48.913,326,1593.353
2026-07-27 14:25:48.913,328,1603.128
2026-07-27 14:25:48.917,326,1593.353
2026-07-27 14:25:48.919,325,1588.465
2026-07-27 14:25:48.960,326,1593.353
2026-07-27 14:25:48.960,328,1603.128
2026-07-27 14:25:48.960,326,1593.353
2026-07-27 14:25:48.960,325,1588.465
2026-07-27 14:25:48.960,328,1603.128
2026-07-27 14:25:48.960,331,1617.791
2026-07-27 14:25:48.960,328,1603.128
2026-07-27 14:25:48.960,327,1598.24
2026-07-27 14:25:48.965,329,1608.016
2026-07-27 14:25:49.005,329,1608.016
2026-07-27 14:25:49.005,329,1608.016
2026-07-27 14:25:49.005,327,1598.24
2026-07-27 14:25:49.005,329,1608.016
2026-07-27 14:25:49.006,330,1612.903
2026-07-27 14:25:49.006,328,1603.128
2026-07-27 14:25:49.006,327,1598.24
2026-07-27 14:25:49.007,330,1612.903
2026-07-27 14:25:49.051,330,1612.903
2026-07-27 14:25:49.052,330,1612.903
2026-07-27 14:25:49.052,329,1608.016
2026-07-27 14:25:49.052,332,1622.678
2026-07-27 14:25:49.052,333,1627.566
2026-07-27 14:25:49.052,333,1627.566
2026-07-27 14:25:49.052,332,1622.678
2026-07-27 14:25:49.052,330,1612.903
2026-07-27 14:25:49.053,331,1617.791
2026-07-27 14:25:49.083,333,1627.566
2026-07-27 14:25:49.083,332,1622.678
2026-07-27 14:25:49.083,332,1622.678
2026-07-27 14:25:49.083,332,1622.678
2026-07-27 14:25:49.083,333,1627.566
